June 2, 2015   10:21:46
Cyclic Voltammetry
File: cv2 2mm benzophenone
Data Source:  Experiment
Instrument Model:  CHI601D
Header: 
Note: 

Init E (V) = 0
High E (V) = 0
Low E (V) = -2.5
Init P/N = N
Scan Rate (V/s) = 0.1
Segment = 2
Sample Interval (V) = 0.001
Quiet Time (sec) = 2
Sensitivity (A/V) = 1e-5

Segment 1:
Ep = -0.712V
ip = -2.196e-7A
Ah = -2.622e-7C

Ep = -1.561V
ip = -5.568e-6A
Ah = -3.831e-6C

Ep = -2.117V
ip = -1.670e-6A
Ah = -2.084e-6C

Segment 2:
Ep = -1.484V
ip = 3.759e-6A
Ah = 2.545e-6C

Ep = -0.495V
ip = 1.730e-7A
Ah = 2.160e-7C

Potential/V, Current/A

0.000, -4.901e-9
-0.001, -1.236e-8
-0.002, -1.481e-8
-0.003, -1.547e-8
-0.004, -1.641e-8
-0.005, -1.637e-8
-0.006, -1.700e-8
-0.007, -1.709e-8
-0.008, -1.758e-8
-0.009, -1.775e-8
-0.010, -1.819e-8
-0.011, -1.829e-8
-0.012, -1.863e-8
-0.013, -1.838e-8
-0.014, -1.900e-8
-0.015, -1.902e-8
-0.016, -1.942e-8
-0.017, -1.923e-8
-0.018, -1.975e-8
-0.019, -1.960e-8
-0.020, -2.007e-8
-0.021, -1.991e-8
-0.022, -2.034e-8
-0.023, -2.026e-8
-0.024, -2.068e-8
-0.025, -2.065e-8
-0.026, -2.096e-8
-0.027, -2.079e-8
-0.028, -2.127e-8
-0.029, -2.115e-8
-0.030, -2.147e-8
-0.031, -2.123e-8
-0.032, -2.165e-8
-0.033, -2.159e-8
-0.034, -2.194e-8
-0.035, -2.188e-8
-0.036, -2.218e-8
-0.037, -2.191e-8
-0.038, -2.232e-8
-0.039, -2.210e-8
-0.040, -2.258e-8
-0.041, -2.247e-8
-0.042, -2.295e-8
-0.043, -2.255e-8
-0.044, -2.310e-8
-0.045, -2.282e-8
-0.046, -2.337e-8
-0.047, -2.315e-8
-0.048, -2.347e-8
-0.049, -2.336e-8
-0.050, -2.363e-8
-0.051, -2.359e-8
-0.052, -2.406e-8
-0.053, -2.372e-8
-0.054, -2.416e-8
-0.055, -2.399e-8
-0.056, -2.424e-8
-0.057, -2.416e-8
-0.058, -2.444e-8
-0.059, -2.422e-8
-0.060, -2.464e-8
-0.061, -2.455e-8
-0.062, -2.494e-8
-0.063, -2.467e-8
-0.064, -2.494e-8
-0.065, -2.491e-8
-0.066, -2.526e-8
-0.067, -2.518e-8
-0.068, -2.547e-8
-0.069, -2.518e-8
-0.070, -2.567e-8
-0.071, -2.543e-8
-0.072, -2.575e-8
-0.073, -2.567e-8
-0.074, -2.605e-8
-0.075, -2.582e-8
-0.076, -2.617e-8
-0.077, -2.617e-8
-0.078, -2.643e-8
-0.079, -2.606e-8
-0.080, -2.650e-8
-0.081, -2.632e-8
-0.082, -2.674e-8
-0.083, -2.648e-8
-0.084, -2.688e-8
-0.085, -2.664e-8
-0.086, -2.716e-8
-0.087, -2.684e-8
-0.088, -2.727e-8
-0.089, -2.694e-8
-0.090, -2.732e-8
-0.091, -2.710e-8
-0.092, -2.766e-8
-0.093, -2.736e-8
-0.094, -2.793e-8
-0.095, -2.760e-8
-0.096, -2.791e-8
-0.097, -2.777e-8
-0.098, -2.825e-8
-0.099, -2.797e-8
-0.100, -2.843e-8
-0.101, -2.816e-8
-0.102, -2.898e-8
-0.103, -2.868e-8
-0.104, -2.893e-8
-0.105, -2.875e-8
-0.106, -2.910e-8
-0.107, -2.881e-8
-0.108, -2.932e-8
-0.109, -2.891e-8
-0.110, -2.943e-8
-0.111, -2.916e-8
-0.112, -2.963e-8
-0.113, -2.942e-8
-0.114, -2.986e-8
-0.115, -2.937e-8
-0.116, -2.995e-8
-0.117, -2.970e-8
-0.118, -3.017e-8
-0.119, -2.999e-8
-0.120, -3.031e-8
-0.121, -3.019e-8
-0.122, -3.043e-8
-0.123, -3.037e-8
-0.124, -3.090e-8
-0.125, -3.056e-8
-0.126, -3.095e-8
-0.127, -3.071e-8
-0.128, -3.132e-8
-0.129, -3.091e-8
-0.130, -3.136e-8
-0.131, -3.112e-8
-0.132, -3.154e-8
-0.133, -3.125e-8
-0.134, -3.174e-8
-0.135, -3.136e-8
-0.136, -3.195e-8
-0.137, -3.154e-8
-0.138, -3.211e-8
-0.139, -3.179e-8
-0.140, -3.224e-8
-0.141, -3.191e-8
-0.142, -3.246e-8
-0.143, -3.219e-8
-0.144, -3.277e-8
-0.145, -3.247e-8
-0.146, -3.291e-8
-0.147, -3.245e-8
-0.148, -3.304e-8
-0.149, -3.270e-8
-0.150, -3.331e-8
-0.151, -3.303e-8
-0.152, -3.347e-8
-0.153, -3.331e-8
-0.154, -3.376e-8
-0.155, -3.337e-8
-0.156, -3.394e-8
-0.157, -3.363e-8
-0.158, -3.420e-8
-0.159, -3.378e-8
-0.160, -3.428e-8
-0.161, -3.386e-8
-0.162, -3.450e-8
-0.163, -3.417e-8
-0.164, -3.485e-8
-0.165, -3.434e-8
-0.166, -3.481e-8
-0.167, -3.461e-8
-0.168, -3.505e-8
-0.169, -3.483e-8
-0.170, -3.529e-8
-0.171, -3.500e-8
-0.172, -3.559e-8
-0.173, -3.513e-8
-0.174, -3.571e-8
-0.175, -3.535e-8
-0.176, -3.590e-8
-0.177, -3.568e-8
-0.178, -3.612e-8
-0.179, -3.592e-8
-0.180, -3.642e-8
-0.181, -3.593e-8
-0.182, -3.655e-8
-0.183, -3.613e-8
-0.184, -3.664e-8
-0.185, -3.629e-8
-0.186, -3.692e-8
-0.187, -3.659e-8
-0.188, -3.715e-8
-0.189, -3.677e-8
-0.190, -3.732e-8
-0.191, -3.690e-8
-0.192, -3.740e-8
-0.193, -3.715e-8
-0.194, -3.781e-8
-0.195, -3.739e-8
-0.196, -3.790e-8
-0.197, -3.756e-8
-0.198, -3.802e-8
-0.199, -3.785e-8
-0.200, -3.819e-8
-0.201, -3.803e-8
-0.202, -3.853e-8
-0.203, -3.809e-8
-0.204, -3.871e-8
-0.205, -3.884e-8
-0.206, -3.914e-8
-0.207, -3.871e-8
-0.208, -3.922e-8
-0.209, -3.891e-8
-0.210, -3.944e-8
-0.211, -3.918e-8
-0.212, -3.966e-8
-0.213, -3.933e-8
-0.214, -3.995e-8
-0.215, -3.959e-8
-0.216, -4.012e-8
-0.217, -3.985e-8
-0.218, -4.024e-8
-0.219, -4.000e-8
-0.220, -4.057e-8
-0.221, -4.020e-8
-0.222, -4.092e-8
-0.223, -4.052e-8
-0.224, -4.108e-8
-0.225, -4.065e-8
-0.226, -4.132e-8
-0.227, -4.099e-8
-0.228, -4.163e-8
-0.229, -4.131e-8
-0.230, -4.195e-8
-0.231, -4.160e-8
-0.232, -4.210e-8
-0.233, -4.189e-8
-0.234, -4.239e-8
-0.235, -4.201e-8
-0.236, -4.265e-8
-0.237, -4.221e-8
-0.238, -4.290e-8
-0.239, -4.259e-8
-0.240, -4.320e-8
-0.241, -4.295e-8
-0.242, -4.362e-8
-0.243, -4.293e-8
-0.244, -4.374e-8
-0.245, -4.354e-8
-0.246, -4.414e-8
-0.247, -4.370e-8
-0.248, -4.445e-8
-0.249, -4.413e-8
-0.250, -4.473e-8
-0.251, -4.429e-8
-0.252, -4.506e-8
-0.253, -4.475e-8
-0.254, -4.530e-8
-0.255, -4.512e-8
-0.256, -4.606e-8
-0.257, -4.542e-8
-0.258, -4.605e-8
-0.259, -4.567e-8
-0.260, -4.649e-8
-0.261, -4.617e-8
-0.262, -4.678e-8
-0.263, -4.632e-8
-0.264, -4.703e-8
-0.265, -4.679e-8
-0.266, -4.757e-8
-0.267, -4.699e-8
-0.268, -4.774e-8
-0.269, -4.725e-8
-0.270, -4.810e-8
-0.271, -4.780e-8
-0.272, -4.845e-8
-0.273, -4.816e-8
-0.274, -4.872e-8
-0.275, -4.852e-8
-0.276, -4.916e-8
-0.277, -4.885e-8
-0.278, -4.940e-8
-0.279, -4.924e-8
-0.280, -4.991e-8
-0.281, -4.960e-8
-0.282, -5.030e-8
-0.283, -4.997e-8
-0.284, -5.056e-8
-0.285, -5.038e-8
-0.286, -5.092e-8
-0.287, -5.070e-8
-0.288, -5.114e-8
-0.289, -5.107e-8
-0.290, -5.175e-8
-0.291, -5.142e-8
-0.292, -5.214e-8
-0.293, -5.181e-8
-0.294, -5.243e-8
-0.295, -5.218e-8
-0.296, -5.274e-8
-0.297, -5.275e-8
-0.298, -5.340e-8
-0.299, -5.318e-8
-0.300, -5.383e-8
-0.301, -5.351e-8
-0.302, -5.413e-8
-0.303, -5.404e-8
-0.304, -5.477e-8
-0.305, -5.464e-8
-0.306, -5.519e-8
-0.307, -5.529e-8
-0.308, -5.597e-8
-0.309, -5.560e-8
-0.310, -5.623e-8
-0.311, -5.604e-8
-0.312, -5.668e-8
-0.313, -5.652e-8
-0.314, -5.714e-8
-0.315, -5.695e-8
-0.316, -5.764e-8
-0.317, -5.752e-8
-0.318, -5.818e-8
-0.319, -5.812e-8
-0.320, -5.864e-8
-0.321, -5.854e-8
-0.322, -5.927e-8
-0.323, -5.906e-8
-0.324, -5.978e-8
-0.325, -5.956e-8
-0.326, -6.032e-8
-0.327, -6.006e-8
-0.328, -6.068e-8
-0.329, -6.073e-8
-0.330, -6.146e-8
-0.331, -6.128e-8
-0.332, -6.194e-8
-0.333, -6.194e-8
-0.334, -6.250e-8
-0.335, -6.236e-8
-0.336, -6.305e-8
-0.337, -6.292e-8
-0.338, -6.370e-8
-0.339, -6.348e-8
-0.340, -6.417e-8
-0.341, -6.417e-8
-0.342, -6.484e-8
-0.343, -6.479e-8
-0.344, -6.548e-8
-0.345, -6.534e-8
-0.346, -6.595e-8
-0.347, -6.602e-8
-0.348, -6.678e-8
-0.349, -6.650e-8
-0.350, -6.729e-8
-0.351, -6.719e-8
-0.352, -6.800e-8
-0.353, -6.797e-8
-0.354, -6.878e-8
-0.355, -6.871e-8
-0.356, -6.958e-8
-0.357, -6.941e-8
-0.358, -7.032e-8
-0.359, -7.040e-8
-0.360, -7.099e-8
-0.361, -7.086e-8
-0.362, -7.168e-8
-0.363, -7.175e-8
-0.364, -7.247e-8
-0.365, -7.239e-8
-0.366, -7.316e-8
-0.367, -7.317e-8
-0.368, -7.397e-8
-0.369, -7.397e-8
-0.370, -7.473e-8
-0.371, -7.450e-8
-0.372, -7.546e-8
-0.373, -7.533e-8
-0.374, -7.615e-8
-0.375, -7.625e-8
-0.376, -7.691e-8
-0.377, -7.690e-8
-0.378, -7.776e-8
-0.379, -7.764e-8
-0.380, -7.857e-8
-0.381, -7.845e-8
-0.382, -7.933e-8
-0.383, -7.940e-8
-0.384, -8.020e-8
-0.385, -8.013e-8
-0.386, -8.101e-8
-0.387, -8.088e-8
-0.388, -8.171e-8
-0.389, -8.181e-8
-0.390, -8.258e-8
-0.391, -8.270e-8
-0.392, -8.356e-8
-0.393, -8.346e-8
-0.394, -8.438e-8
-0.395, -8.444e-8
-0.396, -8.530e-8
-0.397, -8.522e-8
-0.398, -8.617e-8
-0.399, -8.601e-8
-0.400, -8.703e-8
-0.401, -8.703e-8
-0.402, -8.799e-8
-0.403, -8.800e-8
-0.404, -8.892e-8
-0.405, -8.890e-8
-0.406, -8.997e-8
-0.407, -9.002e-8
-0.408, -9.093e-8
-0.409, -9.068e-8
-0.410, -9.139e-8
-0.411, -9.185e-8
-0.412, -9.308e-8
-0.413, -9.313e-8
-0.414, -9.427e-8
-0.415, -9.427e-8
-0.416, -9.532e-8
-0.417, -9.550e-8
-0.418, -9.649e-8
-0.419, -9.669e-8
-0.420, -9.771e-8
-0.421, -9.769e-8
-0.422, -9.861e-8
-0.423, -9.864e-8
-0.424, -9.934e-8
-0.425, -9.966e-8
-0.426, -1.006e-7
-0.427, -1.007e-7
-0.428, -1.016e-7
-0.429, -1.016e-7
-0.430, -1.026e-7
-0.431, -1.028e-7
-0.432, -1.037e-7
-0.433, -1.038e-7
-0.434, -1.048e-7
-0.435, -1.050e-7
-0.436, -1.061e-7
-0.437, -1.059e-7
-0.438, -1.071e-7
-0.439, -1.072e-7
-0.440, -1.084e-7
-0.441, -1.084e-7
-0.442, -1.095e-7
-0.443, -1.096e-7
-0.444, -1.107e-7
-0.445, -1.109e-7
-0.446, -1.120e-7
-0.447, -1.121e-7
-0.448, -1.132e-7
-0.449, -1.133e-7
-0.450, -1.144e-7
-0.451, -1.146e-7
-0.452, -1.159e-7
-0.453, -1.159e-7
-0.454, -1.171e-7
-0.455, -1.173e-7
-0.456, -1.186e-7
-0.457, -1.188e-7
-0.458, -1.201e-7
-0.459, -1.202e-7
-0.460, -1.216e-7
-0.461, -1.218e-7
-0.462, -1.228e-7
-0.463, -1.230e-7
-0.464, -1.243e-7
-0.465, -1.245e-7
-0.466, -1.255e-7
-0.467, -1.258e-7
-0.468, -1.271e-7
-0.469, -1.273e-7
-0.470, -1.285e-7
-0.471, -1.288e-7
-0.472, -1.301e-7
-0.473, -1.304e-7
-0.474, -1.318e-7
-0.475, -1.320e-7
-0.476, -1.335e-7
-0.477, -1.340e-7
-0.478, -1.353e-7
-0.479, -1.356e-7
-0.480, -1.369e-7
-0.481, -1.372e-7
-0.482, -1.385e-7
-0.483, -1.390e-7
-0.484, -1.404e-7
-0.485, -1.409e-7
-0.486, -1.426e-7
-0.487, -1.430e-7
-0.488, -1.445e-7
-0.489, -1.449e-7
-0.490, -1.464e-7
-0.491, -1.468e-7
-0.492, -1.483e-7
-0.493, -1.487e-7
-0.494, -1.503e-7
-0.495, -1.507e-7
-0.496, -1.523e-7
-0.497, -1.530e-7
-0.498, -1.545e-7
-0.499, -1.551e-7
-0.500, -1.568e-7
-0.501, -1.573e-7
-0.502, -1.592e-7
-0.503, -1.597e-7
-0.504, -1.615e-7
-0.505, -1.622e-7
-0.506, -1.640e-7
-0.507, -1.647e-7
-0.508, -1.665e-7
-0.509, -1.675e-7
-0.510, -1.694e-7
-0.511, -1.703e-7
-0.512, -1.727e-7
-0.513, -1.735e-7
-0.514, -1.754e-7
-0.515, -1.763e-7
-0.516, -1.782e-7
-0.517, -1.792e-7
-0.518, -1.813e-7
-0.519, -1.822e-7
-0.520, -1.842e-7
-0.521, -1.852e-7
-0.522, -1.873e-7
-0.523, -1.883e-7
-0.524, -1.908e-7
-0.525, -1.918e-7
-0.526, -1.944e-7
-0.527, -1.955e-7
-0.528, -1.974e-7
-0.529, -1.985e-7
-0.530, -2.005e-7
-0.531, -2.014e-7
-0.532, -2.037e-7
-0.533, -2.046e-7
-0.534, -2.069e-7
-0.535, -2.080e-7
-0.536, -2.100e-7
-0.537, -2.109e-7
-0.538, -2.132e-7
-0.539, -2.140e-7
-0.540, -2.162e-7
-0.541, -2.172e-7
-0.542, -2.193e-7
-0.543, -2.201e-7
-0.544, -2.219e-7
-0.545, -2.227e-7
-0.546, -2.247e-7
-0.547, -2.255e-7
-0.548, -2.276e-7
-0.549, -2.283e-7
-0.550, -2.303e-7
-0.551, -2.311e-7
-0.552, -2.331e-7
-0.553, -2.338e-7
-0.554, -2.356e-7
-0.555, -2.364e-7
-0.556, -2.383e-7
-0.557, -2.389e-7
-0.558, -2.410e-7
-0.559, -2.419e-7
-0.560, -2.437e-7
-0.561, -2.445e-7
-0.562, -2.461e-7
-0.563, -2.471e-7
-0.564, -2.487e-7
-0.565, -2.495e-7
-0.566, -2.515e-7
-0.567, -2.526e-7
-0.568, -2.543e-7
-0.569, -2.555e-7
-0.570, -2.573e-7
-0.571, -2.584e-7
-0.572, -2.604e-7
-0.573, -2.615e-7
-0.574, -2.635e-7
-0.575, -2.650e-7
-0.576, -2.671e-7
-0.577, -2.685e-7
-0.578, -2.709e-7
-0.579, -2.724e-7
-0.580, -2.748e-7
-0.581, -2.763e-7
-0.582, -2.789e-7
-0.583, -2.804e-7
-0.584, -2.830e-7
-0.585, -2.846e-7
-0.586, -2.875e-7
-0.587, -2.893e-7
-0.588, -2.924e-7
-0.589, -2.944e-7
-0.590, -2.969e-7
-0.591, -2.986e-7
-0.592, -3.016e-7
-0.593, -3.036e-7
-0.594, -3.067e-7
-0.595, -3.085e-7
-0.596, -3.119e-7
-0.597, -3.142e-7
-0.598, -3.178e-7
-0.599, -3.198e-7
-0.600, -3.230e-7
-0.601, -3.252e-7
-0.602, -3.285e-7
-0.603, -3.308e-7
-0.604, -3.345e-7
-0.605, -3.369e-7
-0.606, -3.405e-7
-0.607, -3.428e-7
-0.608, -3.460e-7
-0.609, -3.483e-7
-0.610, -3.519e-7
-0.611, -3.545e-7
-0.612, -3.581e-7
-0.613, -3.604e-7
-0.614, -3.641e-7
-0.615, -3.668e-7
-0.616, -3.700e-7
-0.617, -3.724e-7
-0.618, -3.761e-7
-0.619, -3.783e-7
-0.620, -3.817e-7
-0.621, -3.843e-7
-0.622, -3.881e-7
-0.623, -3.908e-7
-0.624, -3.940e-7
-0.625, -3.962e-7
-0.626, -3.996e-7
-0.627, -4.019e-7
-0.628, -4.052e-7
-0.629, -4.075e-7
-0.630, -4.113e-7
-0.631, -4.138e-7
-0.632, -4.173e-7
-0.633, -4.192e-7
-0.634, -4.223e-7
-0.635, -4.246e-7
-0.636, -4.280e-7
-0.637, -4.299e-7
-0.638, -4.333e-7
-0.639, -4.355e-7
-0.640, -4.391e-7
-0.641, -4.409e-7
-0.642, -4.437e-7
-0.643, -4.455e-7
-0.644, -4.487e-7
-0.645, -4.505e-7
-0.646, -4.536e-7
-0.647, -4.555e-7
-0.648, -4.582e-7
-0.649, -4.599e-7
-0.650, -4.629e-7
-0.651, -4.646e-7
-0.652, -4.672e-7
-0.653, -4.686e-7
-0.654, -4.713e-7
-0.655, -4.729e-7
-0.656, -4.755e-7
-0.657, -4.768e-7
-0.658, -4.791e-7
-0.659, -4.804e-7
-0.660, -4.829e-7
-0.661, -4.843e-7
-0.662, -4.869e-7
-0.663, -4.880e-7
-0.664, -4.903e-7
-0.665, -4.914e-7
-0.666, -4.935e-7
-0.667, -4.943e-7
-0.668, -4.963e-7
-0.669, -4.973e-7
-0.670, -4.994e-7
-0.671, -4.999e-7
-0.672, -5.018e-7
-0.673, -5.023e-7
-0.674, -5.042e-7
-0.675, -5.048e-7
-0.676, -5.065e-7
-0.677, -5.068e-7
-0.678, -5.084e-7
-0.679, -5.087e-7
-0.680, -5.105e-7
-0.681, -5.109e-7
-0.682, -5.125e-7
-0.683, -5.128e-7
-0.684, -5.142e-7
-0.685, -5.143e-7
-0.686, -5.155e-7
-0.687, -5.156e-7
-0.688, -5.168e-7
-0.689, -5.169e-7
-0.690, -5.181e-7
-0.691, -5.182e-7
-0.692, -5.193e-7
-0.693, -5.190e-7
-0.694, -5.201e-7
-0.695, -5.198e-7
-0.696, -5.207e-7
-0.697, -5.206e-7
-0.698, -5.216e-7
-0.699, -5.212e-7
-0.700, -5.220e-7
-0.701, -5.217e-7
-0.702, -5.225e-7
-0.703, -5.222e-7
-0.704, -5.227e-7
-0.705, -5.224e-7
-0.706, -5.230e-7
-0.707, -5.226e-7
-0.708, -5.232e-7
-0.709, -5.226e-7
-0.710, -5.232e-7
-0.711, -5.227e-7
-0.712, -5.232e-7
-0.713, -5.226e-7
-0.714, -5.229e-7
-0.715, -5.225e-7
-0.716, -5.229e-7
-0.717, -5.227e-7
-0.718, -5.229e-7
-0.719, -5.221e-7
-0.720, -5.225e-7
-0.721, -5.219e-7
-0.722, -5.220e-7
-0.723, -5.212e-7
-0.724, -5.215e-7
-0.725, -5.210e-7
-0.726, -5.210e-7
-0.727, -5.203e-7
-0.728, -5.205e-7
-0.729, -5.198e-7
-0.730, -5.198e-7
-0.731, -5.190e-7
-0.732, -5.193e-7
-0.733, -5.185e-7
-0.734, -5.187e-7
-0.735, -5.178e-7
-0.736, -5.179e-7
-0.737, -5.171e-7
-0.738, -5.171e-7
-0.739, -5.164e-7
-0.740, -5.165e-7
-0.741, -5.155e-7
-0.742, -5.158e-7
-0.743, -5.149e-7
-0.744, -5.148e-7
-0.745, -5.139e-7
-0.746, -5.141e-7
-0.747, -5.131e-7
-0.748, -5.132e-7
-0.749, -5.121e-7
-0.750, -5.122e-7
-0.751, -5.112e-7
-0.752, -5.112e-7
-0.753, -5.101e-7
-0.754, -5.104e-7
-0.755, -5.091e-7
-0.756, -5.091e-7
-0.757, -5.082e-7
-0.758, -5.084e-7
-0.759, -5.072e-7
-0.760, -5.073e-7
-0.761, -5.063e-7
-0.762, -5.062e-7
-0.763, -5.053e-7
-0.764, -5.054e-7
-0.765, -5.045e-7
-0.766, -5.045e-7
-0.767, -5.035e-7
-0.768, -5.037e-7
-0.769, -5.026e-7
-0.770, -5.027e-7
-0.771, -5.017e-7
-0.772, -5.017e-7
-0.773, -5.007e-7
-0.774, -5.008e-7
-0.775, -4.996e-7
-0.776, -4.997e-7
-0.777, -4.988e-7
-0.778, -4.989e-7
-0.779, -4.978e-7
-0.780, -4.978e-7
-0.781, -4.966e-7
-0.782, -4.968e-7
-0.783, -4.959e-7
-0.784, -4.959e-7
-0.785, -4.950e-7
-0.786, -4.951e-7
-0.787, -4.940e-7
-0.788, -4.941e-7
-0.789, -4.931e-7
-0.790, -4.932e-7
-0.791, -4.925e-7
-0.792, -4.922e-7
-0.793, -4.915e-7
-0.794, -4.916e-7
-0.795, -4.907e-7
-0.796, -4.907e-7
-0.797, -4.897e-7
-0.798, -4.898e-7
-0.799, -4.891e-7
-0.800, -4.890e-7
-0.801, -4.879e-7
-0.802, -4.879e-7
-0.803, -4.872e-7
-0.804, -4.871e-7
-0.805, -4.860e-7
-0.806, -4.859e-7
-0.807, -4.851e-7
-0.808, -4.851e-7
-0.809, -4.842e-7
-0.810, -4.840e-7
-0.811, -4.832e-7
-0.812, -4.835e-7
-0.813, -4.824e-7
-0.814, -4.824e-7
-0.815, -4.815e-7
-0.816, -4.815e-7
-0.817, -4.808e-7
-0.818, -4.808e-7
-0.819, -4.796e-7
-0.820, -4.798e-7
-0.821, -4.790e-7
-0.822, -4.793e-7
-0.823, -4.783e-7
-0.824, -4.786e-7
-0.825, -4.778e-7
-0.826, -4.778e-7
-0.827, -4.771e-7
-0.828, -4.772e-7
-0.829, -4.764e-7
-0.830, -4.765e-7
-0.831, -4.757e-7
-0.832, -4.757e-7
-0.833, -4.749e-7
-0.834, -4.750e-7
-0.835, -4.742e-7
-0.836, -4.742e-7
-0.837, -4.734e-7
-0.838, -4.735e-7
-0.839, -4.728e-7
-0.840, -4.729e-7
-0.841, -4.721e-7
-0.842, -4.722e-7
-0.843, -4.715e-7
-0.844, -4.716e-7
-0.845, -4.709e-7
-0.846, -4.709e-7
-0.847, -4.701e-7
-0.848, -4.701e-7
-0.849, -4.694e-7
-0.850, -4.695e-7
-0.851, -4.688e-7
-0.852, -4.691e-7
-0.853, -4.683e-7
-0.854, -4.684e-7
-0.855, -4.677e-7
-0.856, -4.677e-7
-0.857, -4.670e-7
-0.858, -4.670e-7
-0.859, -4.662e-7
-0.860, -4.665e-7
-0.861, -4.659e-7
-0.862, -4.660e-7
-0.863, -4.654e-7
-0.864, -4.653e-7
-0.865, -4.648e-7
-0.866, -4.649e-7
-0.867, -4.642e-7
-0.868, -4.644e-7
-0.869, -4.636e-7
-0.870, -4.639e-7
-0.871, -4.632e-7
-0.872, -4.632e-7
-0.873, -4.626e-7
-0.874, -4.628e-7
-0.875, -4.620e-7
-0.876, -4.621e-7
-0.877, -4.614e-7
-0.878, -4.617e-7
-0.879, -4.609e-7
-0.880, -4.611e-7
-0.881, -4.604e-7
-0.882, -4.606e-7
-0.883, -4.597e-7
-0.884, -4.599e-7
-0.885, -4.592e-7
-0.886, -4.595e-7
-0.887, -4.590e-7
-0.888, -4.590e-7
-0.889, -4.583e-7
-0.890, -4.587e-7
-0.891, -4.579e-7
-0.892, -4.580e-7
-0.893, -4.574e-7
-0.894, -4.578e-7
-0.895, -4.569e-7
-0.896, -4.571e-7
-0.897, -4.564e-7
-0.898, -4.568e-7
-0.899, -4.561e-7
-0.900, -4.562e-7
-0.901, -4.556e-7
-0.902, -4.559e-7
-0.903, -4.552e-7
-0.904, -4.552e-7
-0.905, -4.547e-7
-0.906, -4.552e-7
-0.907, -4.546e-7
-0.908, -4.547e-7
-0.909, -4.539e-7
-0.910, -4.543e-7
-0.911, -4.537e-7
-0.912, -4.539e-7
-0.913, -4.531e-7
-0.914, -4.535e-7
-0.915, -4.528e-7
-0.916, -4.531e-7
-0.917, -4.523e-7
-0.918, -4.524e-7
-0.919, -4.522e-7
-0.920, -4.523e-7
-0.921, -4.519e-7
-0.922, -4.521e-7
-0.923, -4.514e-7
-0.924, -4.516e-7
-0.925, -4.511e-7
-0.926, -4.509e-7
-0.927, -4.506e-7
-0.928, -4.508e-7
-0.929, -4.504e-7
-0.930, -4.505e-7
-0.931, -4.498e-7
-0.932, -4.501e-7
-0.933, -4.494e-7
-0.934, -4.498e-7
-0.935, -4.489e-7
-0.936, -4.493e-7
-0.937, -4.488e-7
-0.938, -4.492e-7
-0.939, -4.484e-7
-0.940, -4.488e-7
-0.941, -4.481e-7
-0.942, -4.484e-7
-0.943, -4.479e-7
-0.944, -4.481e-7
-0.945, -4.475e-7
-0.946, -4.477e-7
-0.947, -4.475e-7
-0.948, -4.475e-7
-0.949, -4.469e-7
-0.950, -4.471e-7
-0.951, -4.466e-7
-0.952, -4.468e-7
-0.953, -4.465e-7
-0.954, -4.465e-7
-0.955, -4.461e-7
-0.956, -4.462e-7
-0.957, -4.459e-7
-0.958, -4.461e-7
-0.959, -4.455e-7
-0.960, -4.456e-7
-0.961, -4.453e-7
-0.962, -4.457e-7
-0.963, -4.452e-7
-0.964, -4.453e-7
-0.965, -4.448e-7
-0.966, -4.451e-7
-0.967, -4.447e-7
-0.968, -4.449e-7
-0.969, -4.444e-7
-0.970, -4.445e-7
-0.971, -4.443e-7
-0.972, -4.446e-7
-0.973, -4.441e-7
-0.974, -4.443e-7
-0.975, -4.438e-7
-0.976, -4.441e-7
-0.977, -4.436e-7
-0.978, -4.438e-7
-0.979, -4.433e-7
-0.980, -4.437e-7
-0.981, -4.432e-7
-0.982, -4.435e-7
-0.983, -4.433e-7
-0.984, -4.434e-7
-0.985, -4.428e-7
-0.986, -4.431e-7
-0.987, -4.428e-7
-0.988, -4.430e-7
-0.989, -4.426e-7
-0.990, -4.427e-7
-0.991, -4.426e-7
-0.992, -4.427e-7
-0.993, -4.424e-7
-0.994, -4.424e-7
-0.995, -4.422e-7
-0.996, -4.425e-7
-0.997, -4.419e-7
-0.998, -4.423e-7
-0.999, -4.420e-7
-1.000, -4.422e-7
-1.001, -4.417e-7
-1.002, -4.419e-7
-1.003, -4.416e-7
-1.004, -4.421e-7
-1.005, -4.414e-7
-1.006, -4.417e-7
-1.007, -4.416e-7
-1.008, -4.419e-7
-1.009, -4.414e-7
-1.010, -4.416e-7
-1.011, -4.411e-7
-1.012, -4.415e-7
-1.013, -4.410e-7
-1.014, -4.412e-7
-1.015, -4.409e-7
-1.016, -4.413e-7
-1.017, -4.409e-7
-1.018, -4.411e-7
-1.019, -4.407e-7
-1.020, -4.412e-7
-1.021, -4.408e-7
-1.022, -4.411e-7
-1.023, -4.407e-7
-1.024, -4.413e-7
-1.025, -4.407e-7
-1.026, -4.410e-7
-1.027, -4.405e-7
-1.028, -4.408e-7
-1.029, -4.405e-7
-1.030, -4.407e-7
-1.031, -4.404e-7
-1.032, -4.407e-7
-1.033, -4.404e-7
-1.034, -4.405e-7
-1.035, -4.402e-7
-1.036, -4.406e-7
-1.037, -4.403e-7
-1.038, -4.404e-7
-1.039, -4.403e-7
-1.040, -4.406e-7
-1.041, -4.404e-7
-1.042, -4.404e-7
-1.043, -4.399e-7
-1.044, -4.404e-7
-1.045, -4.402e-7
-1.046, -4.405e-7
-1.047, -4.400e-7
-1.048, -4.403e-7
-1.049, -4.404e-7
-1.050, -4.406e-7
-1.051, -4.401e-7
-1.052, -4.404e-7
-1.053, -4.403e-7
-1.054, -4.405e-7
-1.055, -4.402e-7
-1.056, -4.407e-7
-1.057, -4.405e-7
-1.058, -4.407e-7
-1.059, -4.402e-7
-1.060, -4.406e-7
-1.061, -4.405e-7
-1.062, -4.407e-7
-1.063, -4.403e-7
-1.064, -4.406e-7
-1.065, -4.406e-7
-1.066, -4.410e-7
-1.067, -4.405e-7
-1.068, -4.408e-7
-1.069, -4.407e-7
-1.070, -4.412e-7
-1.071, -4.408e-7
-1.072, -4.410e-7
-1.073, -4.410e-7
-1.074, -4.413e-7
-1.075, -4.412e-7
-1.076, -4.412e-7
-1.077, -4.411e-7
-1.078, -4.416e-7
-1.079, -4.414e-7
-1.080, -4.415e-7
-1.081, -4.415e-7
-1.082, -4.416e-7
-1.083, -4.416e-7
-1.084, -4.417e-7
-1.085, -4.419e-7
-1.086, -4.421e-7
-1.087, -4.420e-7
-1.088, -4.423e-7
-1.089, -4.422e-7
-1.090, -4.425e-7
-1.091, -4.424e-7
-1.092, -4.425e-7
-1.093, -4.425e-7
-1.094, -4.429e-7
-1.095, -4.426e-7
-1.096, -4.429e-7
-1.097, -4.428e-7
-1.098, -4.434e-7
-1.099, -4.431e-7
-1.100, -4.434e-7
-1.101, -4.432e-7
-1.102, -4.437e-7
-1.103, -4.435e-7
-1.104, -4.437e-7
-1.105, -4.434e-7
-1.106, -4.440e-7
-1.107, -4.439e-7
-1.108, -4.443e-7
-1.109, -4.440e-7
-1.110, -4.444e-7
-1.111, -4.445e-7
-1.112, -4.449e-7
-1.113, -4.447e-7
-1.114, -4.448e-7
-1.115, -4.449e-7
-1.116, -4.453e-7
-1.117, -4.452e-7
-1.118, -4.454e-7
-1.119, -4.454e-7
-1.120, -4.458e-7
-1.121, -4.458e-7
-1.122, -4.463e-7
-1.123, -4.462e-7
-1.124, -4.466e-7
-1.125, -4.465e-7
-1.126, -4.472e-7
-1.127, -4.471e-7
-1.128, -4.474e-7
-1.129, -4.471e-7
-1.130, -4.475e-7
-1.131, -4.476e-7
-1.132, -4.480e-7
-1.133, -4.479e-7
-1.134, -4.482e-7
-1.135, -4.484e-7
-1.136, -4.488e-7
-1.137, -4.488e-7
-1.138, -4.490e-7
-1.139, -4.490e-7
-1.140, -4.496e-7
-1.141, -4.496e-7
-1.142, -4.499e-7
-1.143, -4.500e-7
-1.144, -4.505e-7
-1.145, -4.505e-7
-1.146, -4.508e-7
-1.147, -4.507e-7
-1.148, -4.513e-7
-1.149, -4.511e-7
-1.150, -4.516e-7
-1.151, -4.515e-7
-1.152, -4.522e-7
-1.153, -4.523e-7
-1.154, -4.524e-7
-1.155, -4.524e-7
-1.156, -4.529e-7
-1.157, -4.531e-7
-1.158, -4.535e-7
-1.159, -4.533e-7
-1.160, -4.539e-7
-1.161, -4.540e-7
-1.162, -4.545e-7
-1.163, -4.544e-7
-1.164, -4.547e-7
-1.165, -4.546e-7
-1.166, -4.552e-7
-1.167, -4.551e-7
-1.168, -4.553e-7
-1.169, -4.554e-7
-1.170, -4.560e-7
-1.171, -4.560e-7
-1.172, -4.562e-7
-1.173, -4.563e-7
-1.174, -4.570e-7
-1.175, -4.571e-7
-1.176, -4.573e-7
-1.177, -4.575e-7
-1.178, -4.581e-7
-1.179, -4.580e-7
-1.180, -4.583e-7
-1.181, -4.583e-7
-1.182, -4.588e-7
-1.183, -4.590e-7
-1.184, -4.592e-7
-1.185, -4.591e-7
-1.186, -4.597e-7
-1.187, -4.598e-7
-1.188, -4.602e-7
-1.189, -4.599e-7
-1.190, -4.605e-7
-1.191, -4.607e-7
-1.192, -4.614e-7
-1.193, -4.615e-7
-1.194, -4.619e-7
-1.195, -4.620e-7
-1.196, -4.627e-7
-1.197, -4.624e-7
-1.198, -4.628e-7
-1.199, -4.629e-7
-1.200, -4.635e-7
-1.201, -4.636e-7
-1.202, -4.640e-7
-1.203, -4.642e-7
-1.204, -4.644e-7
-1.205, -4.644e-7
-1.206, -4.648e-7
-1.207, -4.649e-7
-1.208, -4.652e-7
-1.209, -4.654e-7
-1.210, -4.660e-7
-1.211, -4.662e-7
-1.212, -4.667e-7
-1.213, -4.668e-7
-1.214, -4.670e-7
-1.215, -4.673e-7
-1.216, -4.676e-7
-1.217, -4.677e-7
-1.218, -4.679e-7
-1.219, -4.682e-7
-1.220, -4.688e-7
-1.221, -4.687e-7
-1.222, -4.691e-7
-1.223, -4.693e-7
-1.224, -4.698e-7
-1.225, -4.701e-7
-1.226, -4.705e-7
-1.227, -4.706e-7
-1.228, -4.711e-7
-1.229, -4.706e-7
-1.230, -4.716e-7
-1.231, -4.719e-7
-1.232, -4.724e-7
-1.233, -4.724e-7
-1.234, -4.730e-7
-1.235, -4.730e-7
-1.236, -4.735e-7
-1.237, -4.737e-7
-1.238, -4.742e-7
-1.239, -4.744e-7
-1.240, -4.747e-7
-1.241, -4.750e-7
-1.242, -4.753e-7
-1.243, -4.756e-7
-1.244, -4.760e-7
-1.245, -4.762e-7
-1.246, -4.768e-7
-1.247, -4.769e-7
-1.248, -4.774e-7
-1.249, -4.777e-7
-1.250, -4.783e-7
-1.251, -4.783e-7
-1.252, -4.790e-7
-1.253, -4.790e-7
-1.254, -4.797e-7
-1.255, -4.798e-7
-1.256, -4.801e-7
-1.257, -4.804e-7
-1.258, -4.808e-7
-1.259, -4.810e-7
-1.260, -4.815e-7
-1.261, -4.817e-7
-1.262, -4.822e-7
-1.263, -4.825e-7
-1.264, -4.833e-7
-1.265, -4.835e-7
-1.266, -4.839e-7
-1.267, -4.841e-7
-1.268, -4.847e-7
-1.269, -4.851e-7
-1.270, -4.855e-7
-1.271, -4.859e-7
-1.272, -4.866e-7
-1.273, -4.870e-7
-1.274, -4.875e-7
-1.275, -4.878e-7
-1.276, -4.884e-7
-1.277, -4.889e-7
-1.278, -4.893e-7
-1.279, -4.895e-7
-1.280, -4.900e-7
-1.281, -4.905e-7
-1.282, -4.911e-7
-1.283, -4.912e-7
-1.284, -4.918e-7
-1.285, -4.924e-7
-1.286, -4.927e-7
-1.287, -4.932e-7
-1.288, -4.935e-7
-1.289, -4.942e-7
-1.290, -4.947e-7
-1.291, -4.951e-7
-1.292, -4.954e-7
-1.293, -4.956e-7
-1.294, -4.962e-7
-1.295, -4.968e-7
-1.296, -4.972e-7
-1.297, -4.977e-7
-1.298, -4.981e-7
-1.299, -4.985e-7
-1.300, -4.991e-7
-1.301, -4.995e-7
-1.302, -5.000e-7
-1.303, -5.005e-7
-1.304, -5.011e-7
-1.305, -5.016e-7
-1.306, -5.022e-7
-1.307, -5.026e-7
-1.308, -5.031e-7
-1.309, -5.038e-7
-1.310, -5.042e-7
-1.311, -5.046e-7
-1.312, -5.049e-7
-1.313, -5.055e-7
-1.314, -5.062e-7
-1.315, -5.065e-7
-1.316, -5.071e-7
-1.317, -5.075e-7
-1.318, -5.083e-7
-1.319, -5.088e-7
-1.320, -5.092e-7
-1.321, -5.100e-7
-1.322, -5.109e-7
-1.323, -5.116e-7
-1.324, -5.122e-7
-1.325, -5.128e-7
-1.326, -5.133e-7
-1.327, -5.141e-7
-1.328, -5.145e-7
-1.329, -5.151e-7
-1.330, -5.155e-7
-1.331, -5.167e-7
-1.332, -5.173e-7
-1.333, -5.176e-7
-1.334, -5.182e-7
-1.335, -5.191e-7
-1.336, -5.197e-7
-1.337, -5.202e-7
-1.338, -5.207e-7
-1.339, -5.216e-7
-1.340, -5.225e-7
-1.341, -5.231e-7
-1.342, -5.237e-7
-1.343, -5.247e-7
-1.344, -5.255e-7
-1.345, -5.263e-7
-1.346, -5.269e-7
-1.347, -5.280e-7
-1.348, -5.288e-7
-1.349, -5.297e-7
-1.350, -5.307e-7
-1.351, -5.316e-7
-1.352, -5.324e-7
-1.353, -5.337e-7
-1.354, -5.349e-7
-1.355, -5.359e-7
-1.356, -5.368e-7
-1.357, -5.383e-7
-1.358, -5.390e-7
-1.359, -5.402e-7
-1.360, -5.410e-7
-1.361, -5.422e-7
-1.362, -5.432e-7
-1.363, -5.444e-7
-1.364, -5.456e-7
-1.365, -5.468e-7
-1.366, -5.482e-7
-1.367, -5.496e-7
-1.368, -5.510e-7
-1.369, -5.526e-7
-1.370, -5.538e-7
-1.371, -5.556e-7
-1.372, -5.571e-7
-1.373, -5.592e-7
-1.374, -5.609e-7
-1.375, -5.626e-7
-1.376, -5.640e-7
-1.377, -5.661e-7
-1.378, -5.681e-7
-1.379, -5.704e-7
-1.380, -5.722e-7
-1.381, -5.744e-7
-1.382, -5.769e-7
-1.383, -5.794e-7
-1.384, -5.817e-7
-1.385, -5.846e-7
-1.386, -5.873e-7
-1.387, -5.904e-7
-1.388, -5.930e-7
-1.389, -5.961e-7
-1.390, -5.991e-7
-1.391, -6.029e-7
-1.392, -6.059e-7
-1.393, -6.101e-7
-1.394, -6.137e-7
-1.395, -6.174e-7
-1.396, -6.211e-7
-1.397, -6.255e-7
-1.398, -6.302e-7
-1.399, -6.358e-7
-1.400, -6.396e-7
-1.401, -6.445e-7
-1.402, -6.492e-7
-1.403, -6.550e-7
-1.404, -6.601e-7
-1.405, -6.661e-7
-1.406, -6.720e-7
-1.407, -6.787e-7
-1.408, -6.854e-7
-1.409, -6.924e-7
-1.410, -6.984e-7
-1.411, -7.067e-7
-1.412, -7.140e-7
-1.413, -7.220e-7
-1.414, -7.295e-7
-1.415, -7.382e-7
-1.416, -7.466e-7
-1.417, -7.567e-7
-1.418, -7.648e-7
-1.419, -7.755e-7
-1.420, -7.851e-7
-1.421, -7.952e-7
-1.422, -8.061e-7
-1.423, -8.175e-7
-1.424, -8.290e-7
-1.425, -8.414e-7
-1.426, -8.532e-7
-1.427, -8.665e-7
-1.428, -8.791e-7
-1.429, -8.937e-7
-1.430, -9.070e-7
-1.431, -9.226e-7
-1.432, -9.371e-7
-1.433, -9.536e-7
-1.434, -9.707e-7
-1.435, -9.875e-7
-1.436, -1.003e-6
-1.437, -1.022e-6
-1.438, -1.039e-6
-1.439, -1.058e-6
-1.440, -1.076e-6
-1.441, -1.097e-6
-1.442, -1.116e-6
-1.443, -1.138e-6
-1.444, -1.157e-6
-1.445, -1.180e-6
-1.446, -1.201e-6
-1.447, -1.225e-6
-1.448, -1.247e-6
-1.449, -1.274e-6
-1.450, -1.297e-6
-1.451, -1.324e-6
-1.452, -1.348e-6
-1.453, -1.375e-6
-1.454, -1.401e-6
-1.455, -1.430e-6
-1.456, -1.458e-6
-1.457, -1.490e-6
-1.458, -1.517e-6
-1.459, -1.551e-6
-1.460, -1.581e-6
-1.461, -1.614e-6
-1.462, -1.645e-6
-1.463, -1.680e-6
-1.464, -1.712e-6
-1.465, -1.748e-6
-1.466, -1.780e-6
-1.467, -1.820e-6
-1.468, -1.856e-6
-1.469, -1.894e-6
-1.470, -1.932e-6
-1.471, -1.975e-6
-1.472, -2.010e-6
-1.473, -2.054e-6
-1.474, -2.094e-6
-1.475, -2.139e-6
-1.476, -2.180e-6
-1.477, -2.226e-6
-1.478, -2.270e-6
-1.479, -2.318e-6
-1.480, -2.363e-6
-1.481, -2.414e-6
-1.482, -2.461e-6
-1.483, -2.513e-6
-1.484, -2.562e-6
-1.485, -2.619e-6
-1.486, -2.670e-6
-1.487, -2.725e-6
-1.488, -2.777e-6
-1.489, -2.837e-6
-1.490, -2.889e-6
-1.491, -2.950e-6
-1.492, -3.001e-6
-1.493, -3.064e-6
-1.494, -3.122e-6
-1.495, -3.186e-6
-1.496, -3.243e-6
-1.497, -3.310e-6
-1.498, -3.366e-6
-1.499, -3.437e-6
-1.500, -3.497e-6
-1.501, -3.567e-6
-1.502, -3.627e-6
-1.503, -3.695e-6
-1.504, -3.756e-6
-1.505, -3.828e-6
-1.506, -3.889e-6
-1.507, -3.963e-6
-1.508, -4.027e-6
-1.509, -4.099e-6
-1.510, -4.164e-6
-1.511, -4.237e-6
-1.512, -4.298e-6
-1.513, -4.370e-6
-1.514, -4.434e-6
-1.515, -4.501e-6
-1.516, -4.563e-6
-1.517, -4.635e-6
-1.518, -4.693e-6
-1.519, -4.762e-6
-1.520, -4.819e-6
-1.521, -4.888e-6
-1.522, -4.948e-6
-1.523, -5.011e-6
-1.524, -5.067e-6
-1.525, -5.131e-6
-1.526, -5.185e-6
-1.527, -5.249e-6
-1.528, -5.299e-6
-1.529, -5.357e-6
-1.530, -5.407e-6
-1.531, -5.462e-6
-1.532, -5.506e-6
-1.533, -5.560e-6
-1.534, -5.606e-6
-1.535, -5.656e-6
-1.536, -5.702e-6
-1.537, -5.754e-6
-1.538, -5.787e-6
-1.539, -5.827e-6
-1.540, -5.859e-6
-1.541, -5.898e-6
-1.542, -5.928e-6
-1.543, -5.962e-6
-1.544, -5.985e-6
-1.545, -6.017e-6
-1.546, -6.037e-6
-1.547, -6.066e-6
-1.548, -6.085e-6
-1.549, -6.107e-6
-1.550, -6.121e-6
-1.551, -6.140e-6
-1.552, -6.151e-6
-1.553, -6.168e-6
-1.554, -6.176e-6
-1.555, -6.187e-6
-1.556, -6.192e-6
-1.557, -6.199e-6
-1.558, -6.201e-6
-1.559, -6.207e-6
-1.560, -6.205e-6
-1.561, -6.208e-6
-1.562, -6.203e-6
-1.563, -6.204e-6
-1.564, -6.196e-6
-1.565, -6.195e-6
-1.566, -6.183e-6
-1.567, -6.176e-6
-1.568, -6.161e-6
-1.569, -6.152e-6
-1.570, -6.136e-6
-1.571, -6.124e-6
-1.572, -6.107e-6
-1.573, -6.095e-6
-1.574, -6.075e-6
-1.575, -6.059e-6
-1.576, -6.039e-6
-1.577, -6.026e-6
-1.578, -6.003e-6
-1.579, -5.984e-6
-1.580, -5.961e-6
-1.581, -5.943e-6
-1.582, -5.921e-6
-1.583, -5.900e-6
-1.584, -5.874e-6
-1.585, -5.854e-6
-1.586, -5.830e-6
-1.587, -5.810e-6
-1.588, -5.784e-6
-1.589, -5.759e-6
-1.590, -5.734e-6
-1.591, -5.711e-6
-1.592, -5.685e-6
-1.593, -5.662e-6
-1.594, -5.635e-6
-1.595, -5.611e-6
-1.596, -5.584e-6
-1.597, -5.561e-6
-1.598, -5.534e-6
-1.599, -5.510e-6
-1.600, -5.483e-6
-1.601, -5.460e-6
-1.602, -5.432e-6
-1.603, -5.410e-6
-1.604, -5.385e-6
-1.605, -5.360e-6
-1.606, -5.334e-6
-1.607, -5.310e-6
-1.608, -5.284e-6
-1.609, -5.261e-6
-1.610, -5.237e-6
-1.611, -5.214e-6
-1.612, -5.190e-6
-1.613, -5.168e-6
-1.614, -5.144e-6
-1.615, -5.121e-6
-1.616, -5.097e-6
-1.617, -5.075e-6
-1.618, -5.051e-6
-1.619, -5.030e-6
-1.620, -5.007e-6
-1.621, -4.986e-6
-1.622, -4.964e-6
-1.623, -4.943e-6
-1.624, -4.921e-6
-1.625, -4.900e-6
-1.626, -4.879e-6
-1.627, -4.860e-6
-1.628, -4.839e-6
-1.629, -4.820e-6
-1.630, -4.800e-6
-1.631, -4.781e-6
-1.632, -4.761e-6
-1.633, -4.742e-6
-1.634, -4.723e-6
-1.635, -4.705e-6
-1.636, -4.686e-6
-1.637, -4.667e-6
-1.638, -4.648e-6
-1.639, -4.630e-6
-1.640, -4.613e-6
-1.641, -4.597e-6
-1.642, -4.579e-6
-1.643, -4.563e-6
-1.644, -4.547e-6
-1.645, -4.531e-6
-1.646, -4.514e-6
-1.647, -4.499e-6
-1.648, -4.483e-6
-1.649, -4.468e-6
-1.650, -4.452e-6
-1.651, -4.438e-6
-1.652, -4.421e-6
-1.653, -4.407e-6
-1.654, -4.392e-6
-1.655, -4.379e-6
-1.656, -4.363e-6
-1.657, -4.349e-6
-1.658, -4.334e-6
-1.659, -4.322e-6
-1.660, -4.309e-6
-1.661, -4.295e-6
-1.662, -4.283e-6
-1.663, -4.271e-6
-1.664, -4.258e-6
-1.665, -4.246e-6
-1.666, -4.233e-6
-1.667, -4.221e-6
-1.668, -4.209e-6
-1.669, -4.197e-6
-1.670, -4.184e-6
-1.671, -4.173e-6
-1.672, -4.161e-6
-1.673, -4.149e-6
-1.674, -4.137e-6
-1.675, -4.127e-6
-1.676, -4.116e-6
-1.677, -4.105e-6
-1.678, -4.094e-6
-1.679, -4.084e-6
-1.680, -4.074e-6
-1.681, -4.064e-6
-1.682, -4.052e-6
-1.683, -4.043e-6
-1.684, -4.034e-6
-1.685, -4.025e-6
-1.686, -4.014e-6
-1.687, -4.004e-6
-1.688, -3.996e-6
-1.689, -3.987e-6
-1.690, -3.977e-6
-1.691, -3.967e-6
-1.692, -3.958e-6
-1.693, -3.950e-6
-1.694, -3.940e-6
-1.695, -3.931e-6
-1.696, -3.923e-6
-1.697, -3.916e-6
-1.698, -3.907e-6
-1.699, -3.899e-6
-1.700, -3.890e-6
-1.701, -3.884e-6
-1.702, -3.876e-6
-1.703, -3.867e-6
-1.704, -3.858e-6
-1.705, -3.852e-6
-1.706, -3.844e-6
-1.707, -3.837e-6
-1.708, -3.829e-6
-1.709, -3.823e-6
-1.710, -3.816e-6
-1.711, -3.809e-6
-1.712, -3.801e-6
-1.713, -3.794e-6
-1.714, -3.787e-6
-1.715, -3.781e-6
-1.716, -3.774e-6
-1.717, -3.768e-6
-1.718, -3.761e-6
-1.719, -3.756e-6
-1.720, -3.749e-6
-1.721, -3.743e-6
-1.722, -3.736e-6
-1.723, -3.730e-6
-1.724, -3.725e-6
-1.725, -3.720e-6
-1.726, -3.712e-6
-1.727, -3.707e-6
-1.728, -3.700e-6
-1.729, -3.696e-6
-1.730, -3.690e-6
-1.731, -3.684e-6
-1.732, -3.678e-6
-1.733, -3.674e-6
-1.734, -3.669e-6
-1.735, -3.663e-6
-1.736, -3.656e-6
-1.737, -3.653e-6
-1.738, -3.648e-6
-1.739, -3.643e-6
-1.740, -3.637e-6
-1.741, -3.633e-6
-1.742, -3.628e-6
-1.743, -3.625e-6
-1.744, -3.618e-6
-1.745, -3.614e-6
-1.746, -3.610e-6
-1.747, -3.606e-6
-1.748, -3.600e-6
-1.749, -3.596e-6
-1.750, -3.592e-6
-1.751, -3.588e-6
-1.752, -3.583e-6
-1.753, -3.579e-6
-1.754, -3.576e-6
-1.755, -3.573e-6
-1.756, -3.567e-6
-1.757, -3.564e-6
-1.758, -3.560e-6
-1.759, -3.557e-6
-1.760, -3.553e-6
-1.761, -3.549e-6
-1.762, -3.545e-6
-1.763, -3.542e-6
-1.764, -3.538e-6
-1.765, -3.535e-6
-1.766, -3.532e-6
-1.767, -3.529e-6
-1.768, -3.526e-6
-1.769, -3.523e-6
-1.770, -3.519e-6
-1.771, -3.516e-6
-1.772, -3.513e-6
-1.773, -3.510e-6
-1.774, -3.507e-6
-1.775, -3.504e-6
-1.776, -3.501e-6
-1.777, -3.499e-6
-1.778, -3.496e-6
-1.779, -3.494e-6
-1.780, -3.490e-6
-1.781, -3.489e-6
-1.782, -3.487e-6
-1.783, -3.484e-6
-1.784, -3.481e-6
-1.785, -3.480e-6
-1.786, -3.478e-6
-1.787, -3.476e-6
-1.788, -3.472e-6
-1.789, -3.470e-6
-1.790, -3.468e-6
-1.791, -3.467e-6
-1.792, -3.464e-6
-1.793, -3.463e-6
-1.794, -3.461e-6
-1.795, -3.461e-6
-1.796, -3.459e-6
-1.797, -3.457e-6
-1.798, -3.455e-6
-1.799, -3.455e-6
-1.800, -3.453e-6
-1.801, -3.451e-6
-1.802, -3.450e-6
-1.803, -3.449e-6
-1.804, -3.449e-6
-1.805, -3.446e-6
-1.806, -3.445e-6
-1.807, -3.445e-6
-1.808, -3.444e-6
-1.809, -3.443e-6
-1.810, -3.442e-6
-1.811, -3.442e-6
-1.812, -3.441e-6
-1.813, -3.440e-6
-1.814, -3.439e-6
-1.815, -3.440e-6
-1.816, -3.439e-6
-1.817, -3.438e-6
-1.818, -3.438e-6
-1.819, -3.439e-6
-1.820, -3.439e-6
-1.821, -3.439e-6
-1.822, -3.438e-6
-1.823, -3.439e-6
-1.824, -3.439e-6
-1.825, -3.439e-6
-1.826, -3.439e-6
-1.827, -3.440e-6
-1.828, -3.440e-6
-1.829, -3.442e-6
-1.830, -3.441e-6
-1.831, -3.442e-6
-1.832, -3.442e-6
-1.833, -3.444e-6
-1.834, -3.444e-6
-1.835, -3.445e-6
-1.836, -3.445e-6
-1.837, -3.447e-6
-1.838, -3.448e-6
-1.839, -3.450e-6
-1.840, -3.451e-6
-1.841, -3.452e-6
-1.842, -3.454e-6
-1.843, -3.456e-6
-1.844, -3.457e-6
-1.845, -3.458e-6
-1.846, -3.460e-6
-1.847, -3.462e-6
-1.848, -3.464e-6
-1.849, -3.466e-6
-1.850, -3.468e-6
-1.851, -3.471e-6
-1.852, -3.473e-6
-1.853, -3.476e-6
-1.854, -3.477e-6
-1.855, -3.481e-6
-1.856, -3.483e-6
-1.857, -3.486e-6
-1.858, -3.488e-6
-1.859, -3.491e-6
-1.860, -3.494e-6
-1.861, -3.498e-6
-1.862, -3.500e-6
-1.863, -3.504e-6
-1.864, -3.506e-6
-1.865, -3.510e-6
-1.866, -3.513e-6
-1.867, -3.516e-6
-1.868, -3.520e-6
-1.869, -3.524e-6
-1.870, -3.528e-6
-1.871, -3.532e-6
-1.872, -3.536e-6
-1.873, -3.540e-6
-1.874, -3.545e-6
-1.875, -3.551e-6
-1.876, -3.554e-6
-1.877, -3.558e-6
-1.878, -3.562e-6
-1.879, -3.568e-6
-1.880, -3.572e-6
-1.881, -3.576e-6
-1.882, -3.580e-6
-1.883, -3.587e-6
-1.884, -3.592e-6
-1.885, -3.597e-6
-1.886, -3.601e-6
-1.887, -3.607e-6
-1.888, -3.613e-6
-1.889, -3.619e-6
-1.890, -3.623e-6
-1.891, -3.630e-6
-1.892, -3.637e-6
-1.893, -3.644e-6
-1.894, -3.648e-6
-1.895, -3.655e-6
-1.896, -3.662e-6
-1.897, -3.670e-6
-1.898, -3.674e-6
-1.899, -3.682e-6
-1.900, -3.688e-6
-1.901, -3.694e-6
-1.902, -3.701e-6
-1.903, -3.708e-6
-1.904, -3.716e-6
-1.905, -3.723e-6
-1.906, -3.730e-6
-1.907, -3.739e-6
-1.908, -3.746e-6
-1.909, -3.754e-6
-1.910, -3.760e-6
-1.911, -3.770e-6
-1.912, -3.778e-6
-1.913, -3.786e-6
-1.914, -3.793e-6
-1.915, -3.802e-6
-1.916, -3.812e-6
-1.917, -3.821e-6
-1.918, -3.828e-6
-1.919, -3.837e-6
-1.920, -3.847e-6
-1.921, -3.856e-6
-1.922, -3.865e-6
-1.923, -3.874e-6
-1.924, -3.883e-6
-1.925, -3.894e-6
-1.926, -3.902e-6
-1.927, -3.914e-6
-1.928, -3.923e-6
-1.929, -3.934e-6
-1.930, -3.943e-6
-1.931, -3.954e-6
-1.932, -3.964e-6
-1.933, -3.974e-6
-1.934, -3.984e-6
-1.935, -3.994e-6
-1.936, -4.004e-6
-1.937, -4.017e-6
-1.938, -4.026e-6
-1.939, -4.037e-6
-1.940, -4.048e-6
-1.941, -4.061e-6
-1.942, -4.072e-6
-1.943, -4.083e-6
-1.944, -4.093e-6
-1.945, -4.106e-6
-1.946, -4.119e-6
-1.947, -4.131e-6
-1.948, -4.141e-6
-1.949, -4.155e-6
-1.950, -4.167e-6
-1.951, -4.180e-6
-1.952, -4.191e-6
-1.953, -4.204e-6
-1.954, -4.216e-6
-1.955, -4.229e-6
-1.956, -4.241e-6
-1.957, -4.254e-6
-1.958, -4.267e-6
-1.959, -4.280e-6
-1.960, -4.293e-6
-1.961, -4.305e-6
-1.962, -4.318e-6
-1.963, -4.333e-6
-1.964, -4.346e-6
-1.965, -4.360e-6
-1.966, -4.373e-6
-1.967, -4.388e-6
-1.968, -4.401e-6
-1.969, -4.415e-6
-1.970, -4.428e-6
-1.971, -4.443e-6
-1.972, -4.458e-6
-1.973, -4.471e-6
-1.974, -4.485e-6
-1.975, -4.499e-6
-1.976, -4.515e-6
-1.977, -4.530e-6
-1.978, -4.542e-6
-1.979, -4.557e-6
-1.980, -4.573e-6
-1.981, -4.589e-6
-1.982, -4.603e-6
-1.983, -4.617e-6
-1.984, -4.631e-6
-1.985, -4.648e-6
-1.986, -4.663e-6
-1.987, -4.677e-6
-1.988, -4.692e-6
-1.989, -4.708e-6
-1.990, -4.724e-6
-1.991, -4.738e-6
-1.992, -4.752e-6
-1.993, -4.767e-6
-1.994, -4.784e-6
-1.995, -4.799e-6
-1.996, -4.814e-6
-1.997, -4.830e-6
-1.998, -4.846e-6
-1.999, -4.863e-6
-2.000, -4.877e-6
-2.001, -4.892e-6
-2.002, -4.907e-6
-2.003, -4.925e-6
-2.004, -4.940e-6
-2.005, -4.956e-6
-2.006, -4.971e-6
-2.007, -4.988e-6
-2.008, -5.003e-6
-2.009, -5.018e-6
-2.010, -5.033e-6
-2.011, -5.049e-6
-2.012, -5.065e-6
-2.013, -5.080e-6
-2.014, -5.096e-6
-2.015, -5.112e-6
-2.016, -5.127e-6
-2.017, -5.144e-6
-2.018, -5.158e-6
-2.019, -5.175e-6
-2.020, -5.191e-6
-2.021, -5.206e-6
-2.022, -5.222e-6
-2.023, -5.238e-6
-2.024, -5.253e-6
-2.025, -5.269e-6
-2.026, -5.283e-6
-2.027, -5.299e-6
-2.028, -5.313e-6
-2.029, -5.329e-6
-2.030, -5.344e-6
-2.031, -5.359e-6
-2.032, -5.372e-6
-2.033, -5.388e-6
-2.034, -5.403e-6
-2.035, -5.419e-6
-2.036, -5.432e-6
-2.037, -5.446e-6
-2.038, -5.462e-6
-2.039, -5.478e-6
-2.040, -5.490e-6
-2.041, -5.504e-6
-2.042, -5.517e-6
-2.043, -5.534e-6
-2.044, -5.547e-6
-2.045, -5.559e-6
-2.046, -5.572e-6
-2.047, -5.587e-6
-2.048, -5.599e-6
-2.049, -5.611e-6
-2.050, -5.623e-6
-2.051, -5.638e-6
-2.052, -5.652e-6
-2.053, -5.664e-6
-2.054, -5.675e-6
-2.055, -5.688e-6
-2.056, -5.701e-6
-2.057, -5.712e-6
-2.058, -5.724e-6
-2.059, -5.737e-6
-2.060, -5.750e-6
-2.061, -5.761e-6
-2.062, -5.771e-6
-2.063, -5.783e-6
-2.064, -5.794e-6
-2.065, -5.805e-6
-2.066, -5.814e-6
-2.067, -5.825e-6
-2.068, -5.837e-6
-2.069, -5.847e-6
-2.070, -5.856e-6
-2.071, -5.866e-6
-2.072, -5.877e-6
-2.073, -5.887e-6
-2.074, -5.896e-6
-2.075, -5.905e-6
-2.076, -5.913e-6
-2.077, -5.923e-6
-2.078, -5.931e-6
-2.079, -5.939e-6
-2.080, -5.947e-6
-2.081, -5.955e-6
-2.082, -5.962e-6
-2.083, -5.970e-6
-2.084, -5.978e-6
-2.085, -5.985e-6
-2.086, -5.991e-6
-2.087, -5.997e-6
-2.088, -6.004e-6
-2.089, -6.010e-6
-2.090, -6.017e-6
-2.091, -6.022e-6
-2.092, -6.027e-6
-2.093, -6.033e-6
-2.094, -6.039e-6
-2.095, -6.042e-6
-2.096, -6.046e-6
-2.097, -6.051e-6
-2.098, -6.055e-6
-2.099, -6.060e-6
-2.100, -6.063e-6
-2.101, -6.068e-6
-2.102, -6.071e-6
-2.103, -6.074e-6
-2.104, -6.075e-6
-2.105, -6.079e-6
-2.106, -6.082e-6
-2.107, -6.085e-6
-2.108, -6.084e-6
-2.109, -6.087e-6
-2.110, -6.088e-6
-2.111, -6.090e-6
-2.112, -6.088e-6
-2.113, -6.090e-6
-2.114, -6.091e-6
-2.115, -6.092e-6
-2.116, -6.090e-6
-2.117, -6.092e-6
-2.118, -6.092e-6
-2.119, -6.092e-6
-2.120, -6.088e-6
-2.121, -6.088e-6
-2.122, -6.089e-6
-2.123, -6.087e-6
-2.124, -6.084e-6
-2.125, -6.084e-6
-2.126, -6.083e-6
-2.127, -6.081e-6
-2.128, -6.077e-6
-2.129, -6.074e-6
-2.130, -6.074e-6
-2.131, -6.070e-6
-2.132, -6.065e-6
-2.133, -6.061e-6
-2.134, -6.060e-6
-2.135, -6.057e-6
-2.136, -6.052e-6
-2.137, -6.047e-6
-2.138, -6.044e-6
-2.139, -6.041e-6
-2.140, -6.035e-6
-2.141, -6.029e-6
-2.142, -6.025e-6
-2.143, -6.022e-6
-2.144, -6.016e-6
-2.145, -6.010e-6
-2.146, -6.004e-6
-2.147, -6.000e-6
-2.148, -5.993e-6
-2.149, -5.987e-6
-2.150, -5.981e-6
-2.151, -5.977e-6
-2.152, -5.969e-6
-2.153, -5.964e-6
-2.154, -5.956e-6
-2.155, -5.951e-6
-2.156, -5.943e-6
-2.157, -5.937e-6
-2.158, -5.930e-6
-2.159, -5.925e-6
-2.160, -5.915e-6
-2.161, -5.908e-6
-2.162, -5.900e-6
-2.163, -5.893e-6
-2.164, -5.884e-6
-2.165, -5.877e-6
-2.166, -5.870e-6
-2.167, -5.864e-6
-2.168, -5.856e-6
-2.169, -5.847e-6
-2.170, -5.839e-6
-2.171, -5.832e-6
-2.172, -5.823e-6
-2.173, -5.814e-6
-2.174, -5.804e-6
-2.175, -5.797e-6
-2.176, -5.789e-6
-2.177, -5.783e-6
-2.178, -5.773e-6
-2.179, -5.766e-6
-2.180, -5.757e-6
-2.181, -5.749e-6
-2.182, -5.740e-6
-2.183, -5.730e-6
-2.184, -5.720e-6
-2.185, -5.713e-6
-2.186, -5.703e-6
-2.187, -5.693e-6
-2.188, -5.685e-6
-2.189, -5.677e-6
-2.190, -5.668e-6
-2.191, -5.658e-6
-2.192, -5.649e-6
-2.193, -5.640e-6
-2.194, -5.632e-6
-2.195, -5.622e-6
-2.196, -5.613e-6
-2.197, -5.606e-6
-2.198, -5.596e-6
-2.199, -5.587e-6
-2.200, -5.578e-6
-2.201, -5.570e-6
-2.202, -5.561e-6
-2.203, -5.550e-6
-2.204, -5.542e-6
-2.205, -5.535e-6
-2.206, -5.525e-6
-2.207, -5.515e-6
-2.208, -5.504e-6
-2.209, -5.497e-6
-2.210, -5.488e-6
-2.211, -5.479e-6
-2.212, -5.469e-6
-2.213, -5.462e-6
-2.214, -5.452e-6
-2.215, -5.444e-6
-2.216, -5.434e-6
-2.217, -5.425e-6
-2.218, -5.416e-6
-2.219, -5.409e-6
-2.220, -5.399e-6
-2.221, -5.391e-6
-2.222, -5.381e-6
-2.223, -5.373e-6
-2.224, -5.365e-6
-2.225, -5.355e-6
-2.226, -5.345e-6
-2.227, -5.338e-6
-2.228, -5.330e-6
-2.229, -5.320e-6
-2.230, -5.311e-6
-2.231, -5.303e-6
-2.232, -5.296e-6
-2.233, -5.287e-6
-2.234, -5.277e-6
-2.235, -5.269e-6
-2.236, -5.261e-6
-2.237, -5.253e-6
-2.238, -5.245e-6
-2.239, -5.237e-6
-2.240, -5.228e-6
-2.241, -5.221e-6
-2.242, -5.212e-6
-2.243, -5.204e-6
-2.244, -5.196e-6
-2.245, -5.188e-6
-2.246, -5.180e-6
-2.247, -5.172e-6
-2.248, -5.164e-6
-2.249, -5.156e-6
-2.250, -5.149e-6
-2.251, -5.141e-6
-2.252, -5.133e-6
-2.253, -5.127e-6
-2.254, -5.121e-6
-2.255, -5.113e-6
-2.256, -5.105e-6
-2.257, -5.096e-6
-2.258, -5.089e-6
-2.259, -5.083e-6
-2.260, -5.073e-6
-2.261, -5.066e-6
-2.262, -5.059e-6
-2.263, -5.055e-6
-2.264, -5.047e-6
-2.265, -5.039e-6
-2.266, -5.031e-6
-2.267, -5.026e-6
-2.268, -5.019e-6
-2.269, -5.011e-6
-2.270, -5.003e-6
-2.271, -4.999e-6
-2.272, -4.993e-6
-2.273, -4.985e-6
-2.274, -4.977e-6
-2.275, -4.972e-6
-2.276, -4.966e-6
-2.277, -4.960e-6
-2.278, -4.953e-6
-2.279, -4.948e-6
-2.280, -4.940e-6
-2.281, -4.935e-6
-2.282, -4.928e-6
-2.283, -4.922e-6
-2.284, -4.914e-6
-2.285, -4.910e-6
-2.286, -4.904e-6
-2.287, -4.898e-6
-2.288, -4.891e-6
-2.289, -4.887e-6
-2.290, -4.882e-6
-2.291, -4.876e-6
-2.292, -4.869e-6
-2.293, -4.865e-6
-2.294, -4.861e-6
-2.295, -4.854e-6
-2.296, -4.847e-6
-2.297, -4.842e-6
-2.298, -4.838e-6
-2.299, -4.833e-6
-2.300, -4.826e-6
-2.301, -4.822e-6
-2.302, -4.818e-6
-2.303, -4.814e-6
-2.304, -4.807e-6
-2.305, -4.801e-6
-2.306, -4.797e-6
-2.307, -4.793e-6
-2.308, -4.788e-6
-2.309, -4.783e-6
-2.310, -4.778e-6
-2.311, -4.776e-6
-2.312, -4.771e-6
-2.313, -4.766e-6
-2.314, -4.759e-6
-2.315, -4.756e-6
-2.316, -4.752e-6
-2.317, -4.748e-6
-2.318, -4.741e-6
-2.319, -4.738e-6
-2.320, -4.735e-6
-2.321, -4.733e-6
-2.322, -4.727e-6
-2.323, -4.721e-6
-2.324, -4.718e-6
-2.325, -4.717e-6
-2.326, -4.711e-6
-2.327, -4.706e-6
-2.328, -4.703e-6
-2.329, -4.702e-6
-2.330, -4.697e-6
-2.331, -4.691e-6
-2.332, -4.687e-6
-2.333, -4.687e-6
-2.334, -4.683e-6
-2.335, -4.677e-6
-2.336, -4.672e-6
-2.337, -4.672e-6
-2.338, -4.669e-6
-2.339, -4.664e-6
-2.340, -4.659e-6
-2.341, -4.659e-6
-2.342, -4.657e-6
-2.343, -4.653e-6
-2.344, -4.646e-6
-2.345, -4.645e-6
-2.346, -4.644e-6
-2.347, -4.641e-6
-2.348, -4.635e-6
-2.349, -4.633e-6
-2.350, -4.632e-6
-2.351, -4.630e-6
-2.352, -4.626e-6
-2.353, -4.623e-6
-2.354, -4.621e-6
-2.355, -4.620e-6
-2.356, -4.616e-6
-2.357, -4.614e-6
-2.358, -4.611e-6
-2.359, -4.610e-6
-2.360, -4.608e-6
-2.361, -4.606e-6
-2.362, -4.602e-6
-2.363, -4.600e-6
-2.364, -4.598e-6
-2.365, -4.596e-6
-2.366, -4.592e-6
-2.367, -4.591e-6
-2.368, -4.589e-6
-2.369, -4.588e-6
-2.370, -4.585e-6
-2.371, -4.583e-6
-2.372, -4.582e-6
-2.373, -4.581e-6
-2.374, -4.579e-6
-2.375, -4.576e-6
-2.376, -4.574e-6
-2.377, -4.573e-6
-2.378, -4.571e-6
-2.379, -4.570e-6
-2.380, -4.568e-6
-2.381, -4.568e-6
-2.382, -4.565e-6
-2.383, -4.565e-6
-2.384, -4.562e-6
-2.385, -4.561e-6
-2.386, -4.558e-6
-2.387, -4.559e-6
-2.388, -4.557e-6
-2.389, -4.556e-6
-2.390, -4.555e-6
-2.391, -4.555e-6
-2.392, -4.553e-6
-2.393, -4.553e-6
-2.394, -4.549e-6
-2.395, -4.550e-6
-2.396, -4.549e-6
-2.397, -4.548e-6
-2.398, -4.545e-6
-2.399, -4.545e-6
-2.400, -4.545e-6
-2.401, -4.544e-6
-2.402, -4.541e-6
-2.403, -4.541e-6
-2.404, -4.542e-6
-2.405, -4.543e-6
-2.406, -4.540e-6
-2.407, -4.540e-6
-2.408, -4.540e-6
-2.409, -4.541e-6
-2.410, -4.538e-6
-2.411, -4.537e-6
-2.412, -4.536e-6
-2.413, -4.538e-6
-2.414, -4.538e-6
-2.415, -4.537e-6
-2.416, -4.535e-6
-2.417, -4.538e-6
-2.418, -4.539e-6
-2.419, -4.537e-6
-2.420, -4.534e-6
-2.421, -4.536e-6
-2.422, -4.538e-6
-2.423, -4.538e-6
-2.424, -4.536e-6
-2.425, -4.536e-6
-2.426, -4.538e-6
-2.427, -4.538e-6
-2.428, -4.537e-6
-2.429, -4.535e-6
-2.430, -4.538e-6
-2.431, -4.538e-6
-2.432, -4.538e-6
-2.433, -4.537e-6
-2.434, -4.540e-6
-2.435, -4.542e-6
-2.436, -4.541e-6
-2.437, -4.541e-6
-2.438, -4.542e-6
-2.439, -4.545e-6
-2.440, -4.546e-6
-2.441, -4.546e-6
-2.442, -4.546e-6
-2.443, -4.548e-6
-2.444, -4.551e-6
-2.445, -4.551e-6
-2.446, -4.549e-6
-2.447, -4.550e-6
-2.448, -4.552e-6
-2.449, -4.555e-6
-2.450, -4.555e-6
-2.451, -4.556e-6
-2.452, -4.558e-6
-2.453, -4.562e-6
-2.454, -4.565e-6
-2.455, -4.565e-6
-2.456, -4.565e-6
-2.457, -4.569e-6
-2.458, -4.570e-6
-2.459, -4.571e-6
-2.460, -4.571e-6
-2.461, -4.575e-6
-2.462, -4.578e-6
-2.463, -4.580e-6
-2.464, -4.581e-6
-2.465, -4.583e-6
-2.466, -4.585e-6
-2.467, -4.590e-6
-2.468, -4.590e-6
-2.469, -4.594e-6
-2.470, -4.596e-6
-2.471, -4.600e-6
-2.472, -4.603e-6
-2.473, -4.606e-6
-2.474, -4.608e-6
-2.475, -4.612e-6
-2.476, -4.615e-6
-2.477, -4.620e-6
-2.478, -4.623e-6
-2.479, -4.627e-6
-2.480, -4.631e-6
-2.481, -4.635e-6
-2.482, -4.638e-6
-2.483, -4.641e-6
-2.484, -4.645e-6
-2.485, -4.650e-6
-2.486, -4.655e-6
-2.487, -4.658e-6
-2.488, -4.664e-6
-2.489, -4.669e-6
-2.490, -4.674e-6
-2.491, -4.679e-6
-2.492, -4.684e-6
-2.493, -4.691e-6
-2.494, -4.697e-6
-2.495, -4.701e-6
-2.496, -4.706e-6
-2.497, -4.712e-6
-2.498, -4.719e-6
-2.499, -4.724e-6
-2.500, -4.719e-6
-2.499, -4.694e-6
-2.498, -4.674e-6
-2.497, -4.655e-6
-2.496, -4.634e-6
-2.495, -4.617e-6
-2.494, -4.601e-6
-2.493, -4.586e-6
-2.492, -4.570e-6
-2.491, -4.555e-6
-2.490, -4.540e-6
-2.489, -4.530e-6
-2.488, -4.516e-6
-2.487, -4.503e-6
-2.486, -4.489e-6
-2.485, -4.478e-6
-2.484, -4.467e-6
-2.483, -4.454e-6
-2.482, -4.442e-6
-2.481, -4.432e-6
-2.480, -4.423e-6
-2.479, -4.413e-6
-2.478, -4.403e-6
-2.477, -4.394e-6
-2.476, -4.385e-6
-2.475, -4.375e-6
-2.474, -4.367e-6
-2.473, -4.358e-6
-2.472, -4.349e-6
-2.471, -4.341e-6
-2.470, -4.334e-6
-2.469, -4.325e-6
-2.468, -4.316e-6
-2.467, -4.310e-6
-2.466, -4.303e-6
-2.465, -4.296e-6
-2.464, -4.287e-6
-2.463, -4.280e-6
-2.462, -4.275e-6
-2.461, -4.268e-6
-2.460, -4.260e-6
-2.459, -4.255e-6
-2.458, -4.252e-6
-2.457, -4.247e-6
-2.456, -4.239e-6
-2.455, -4.232e-6
-2.454, -4.228e-6
-2.453, -4.224e-6
-2.452, -4.215e-6
-2.451, -4.208e-6
-2.450, -4.205e-6
-2.449, -4.202e-6
-2.448, -4.194e-6
-2.447, -4.187e-6
-2.446, -4.182e-6
-2.445, -4.181e-6
-2.444, -4.175e-6
-2.443, -4.168e-6
-2.442, -4.164e-6
-2.441, -4.162e-6
-2.440, -4.156e-6
-2.439, -4.150e-6
-2.438, -4.145e-6
-2.437, -4.142e-6
-2.436, -4.138e-6
-2.435, -4.134e-6
-2.434, -4.129e-6
-2.433, -4.126e-6
-2.432, -4.121e-6
-2.431, -4.116e-6
-2.430, -4.112e-6
-2.429, -4.108e-6
-2.428, -4.103e-6
-2.427, -4.100e-6
-2.426, -4.096e-6
-2.425, -4.093e-6
-2.424, -4.089e-6
-2.423, -4.086e-6
-2.422, -4.083e-6
-2.421, -4.079e-6
-2.420, -4.074e-6
-2.419, -4.071e-6
-2.418, -4.068e-6
-2.417, -4.065e-6
-2.416, -4.060e-6
-2.415, -4.057e-6
-2.414, -4.053e-6
-2.413, -4.052e-6
-2.412, -4.047e-6
-2.411, -4.044e-6
-2.410, -4.039e-6
-2.409, -4.038e-6
-2.408, -4.034e-6
-2.407, -4.032e-6
-2.406, -4.028e-6
-2.405, -4.027e-6
-2.404, -4.024e-6
-2.403, -4.021e-6
-2.402, -4.017e-6
-2.401, -4.014e-6
-2.400, -4.011e-6
-2.399, -4.008e-6
-2.398, -4.004e-6
-2.397, -4.002e-6
-2.396, -4.000e-6
-2.395, -3.997e-6
-2.394, -3.995e-6
-2.393, -3.992e-6
-2.392, -3.989e-6
-2.391, -3.987e-6
-2.390, -3.982e-6
-2.389, -3.980e-6
-2.388, -3.977e-6
-2.387, -3.974e-6
-2.386, -3.971e-6
-2.385, -3.969e-6
-2.384, -3.967e-6
-2.383, -3.965e-6
-2.382, -3.962e-6
-2.381, -3.961e-6
-2.380, -3.958e-6
-2.379, -3.954e-6
-2.378, -3.952e-6
-2.377, -3.948e-6
-2.376, -3.947e-6
-2.375, -3.944e-6
-2.374, -3.941e-6
-2.373, -3.940e-6
-2.372, -3.938e-6
-2.371, -3.936e-6
-2.370, -3.932e-6
-2.369, -3.930e-6
-2.368, -3.929e-6
-2.367, -3.926e-6
-2.366, -3.923e-6
-2.365, -3.920e-6
-2.364, -3.918e-6
-2.363, -3.918e-6
-2.362, -3.913e-6
-2.361, -3.911e-6
-2.360, -3.909e-6
-2.359, -3.907e-6
-2.358, -3.904e-6
-2.357, -3.900e-6
-2.356, -3.899e-6
-2.355, -3.898e-6
-2.354, -3.893e-6
-2.353, -3.892e-6
-2.352, -3.890e-6
-2.351, -3.890e-6
-2.350, -3.886e-6
-2.349, -3.884e-6
-2.348, -3.882e-6
-2.347, -3.880e-6
-2.346, -3.876e-6
-2.345, -3.874e-6
-2.344, -3.872e-6
-2.343, -3.872e-6
-2.342, -3.868e-6
-2.341, -3.865e-6
-2.340, -3.863e-6
-2.339, -3.861e-6
-2.338, -3.857e-6
-2.337, -3.854e-6
-2.336, -3.853e-6
-2.335, -3.853e-6
-2.334, -3.851e-6
-2.333, -3.848e-6
-2.332, -3.847e-6
-2.331, -3.844e-6
-2.330, -3.842e-6
-2.329, -3.838e-6
-2.328, -3.836e-6
-2.327, -3.833e-6
-2.326, -3.830e-6
-2.325, -3.828e-6
-2.324, -3.826e-6
-2.323, -3.825e-6
-2.322, -3.823e-6
-2.321, -3.821e-6
-2.320, -3.819e-6
-2.319, -3.817e-6
-2.318, -3.815e-6
-2.317, -3.812e-6
-2.316, -3.808e-6
-2.315, -3.807e-6
-2.314, -3.804e-6
-2.313, -3.803e-6
-2.312, -3.799e-6
-2.311, -3.798e-6
-2.310, -3.797e-6
-2.309, -3.795e-6
-2.308, -3.792e-6
-2.307, -3.789e-6
-2.306, -3.787e-6
-2.305, -3.785e-6
-2.304, -3.781e-6
-2.303, -3.778e-6
-2.302, -3.776e-6
-2.301, -3.776e-6
-2.300, -3.773e-6
-2.299, -3.771e-6
-2.298, -3.768e-6
-2.297, -3.766e-6
-2.296, -3.763e-6
-2.295, -3.761e-6
-2.294, -3.757e-6
-2.293, -3.755e-6
-2.292, -3.753e-6
-2.291, -3.751e-6
-2.290, -3.748e-6
-2.289, -3.746e-6
-2.288, -3.744e-6
-2.287, -3.742e-6
-2.286, -3.739e-6
-2.285, -3.736e-6
-2.284, -3.734e-6
-2.283, -3.732e-6
-2.282, -3.729e-6
-2.281, -3.727e-6
-2.280, -3.724e-6
-2.279, -3.722e-6
-2.278, -3.720e-6
-2.277, -3.717e-6
-2.276, -3.714e-6
-2.275, -3.712e-6
-2.274, -3.710e-6
-2.273, -3.707e-6
-2.272, -3.704e-6
-2.271, -3.701e-6
-2.270, -3.698e-6
-2.269, -3.695e-6
-2.268, -3.692e-6
-2.267, -3.689e-6
-2.266, -3.688e-6
-2.265, -3.685e-6
-2.264, -3.683e-6
-2.263, -3.681e-6
-2.262, -3.678e-6
-2.261, -3.676e-6
-2.260, -3.672e-6
-2.259, -3.669e-6
-2.258, -3.666e-6
-2.257, -3.664e-6
-2.256, -3.660e-6
-2.255, -3.656e-6
-2.254, -3.654e-6
-2.253, -3.652e-6
-2.252, -3.648e-6
-2.251, -3.646e-6
-2.250, -3.643e-6
-2.249, -3.641e-6
-2.248, -3.638e-6
-2.247, -3.635e-6
-2.246, -3.633e-6
-2.245, -3.630e-6
-2.244, -3.627e-6
-2.243, -3.624e-6
-2.242, -3.621e-6
-2.241, -3.618e-6
-2.240, -3.614e-6
-2.239, -3.611e-6
-2.238, -3.608e-6
-2.237, -3.605e-6
-2.236, -3.601e-6
-2.235, -3.599e-6
-2.234, -3.596e-6
-2.233, -3.593e-6
-2.232, -3.590e-6
-2.231, -3.587e-6
-2.230, -3.584e-6
-2.229, -3.581e-6
-2.228, -3.578e-6
-2.227, -3.575e-6
-2.226, -3.572e-6
-2.225, -3.570e-6
-2.224, -3.566e-6
-2.223, -3.560e-6
-2.222, -3.557e-6
-2.221, -3.554e-6
-2.220, -3.550e-6
-2.219, -3.546e-6
-2.218, -3.542e-6
-2.217, -3.540e-6
-2.216, -3.537e-6
-2.215, -3.533e-6
-2.214, -3.530e-6
-2.213, -3.528e-6
-2.212, -3.525e-6
-2.211, -3.521e-6
-2.210, -3.516e-6
-2.209, -3.514e-6
-2.208, -3.510e-6
-2.207, -3.507e-6
-2.206, -3.503e-6
-2.205, -3.499e-6
-2.204, -3.494e-6
-2.203, -3.491e-6
-2.202, -3.487e-6
-2.201, -3.483e-6
-2.200, -3.479e-6
-2.199, -3.476e-6
-2.198, -3.472e-6
-2.197, -3.468e-6
-2.196, -3.464e-6
-2.195, -3.461e-6
-2.194, -3.458e-6
-2.193, -3.454e-6
-2.192, -3.449e-6
-2.191, -3.446e-6
-2.190, -3.442e-6
-2.189, -3.438e-6
-2.188, -3.434e-6
-2.187, -3.430e-6
-2.186, -3.426e-6
-2.185, -3.421e-6
-2.184, -3.416e-6
-2.183, -3.412e-6
-2.182, -3.408e-6
-2.181, -3.405e-6
-2.180, -3.400e-6
-2.179, -3.397e-6
-2.178, -3.393e-6
-2.177, -3.389e-6
-2.176, -3.384e-6
-2.175, -3.379e-6
-2.174, -3.376e-6
-2.173, -3.371e-6
-2.172, -3.367e-6
-2.171, -3.361e-6
-2.170, -3.357e-6
-2.169, -3.354e-6
-2.168, -3.349e-6
-2.167, -3.344e-6
-2.166, -3.339e-6
-2.165, -3.336e-6
-2.164, -3.332e-6
-2.163, -3.327e-6
-2.162, -3.321e-6
-2.161, -3.317e-6
-2.160, -3.314e-6
-2.159, -3.309e-6
-2.158, -3.303e-6
-2.157, -3.300e-6
-2.156, -3.296e-6
-2.155, -3.291e-6
-2.154, -3.285e-6
-2.153, -3.280e-6
-2.152, -3.276e-6
-2.151, -3.270e-6
-2.150, -3.264e-6
-2.149, -3.259e-6
-2.148, -3.255e-6
-2.147, -3.251e-6
-2.146, -3.246e-6
-2.145, -3.241e-6
-2.144, -3.237e-6
-2.143, -3.234e-6
-2.142, -3.229e-6
-2.141, -3.223e-6
-2.140, -3.218e-6
-2.139, -3.214e-6
-2.138, -3.208e-6
-2.137, -3.203e-6
-2.136, -3.196e-6
-2.135, -3.191e-6
-2.134, -3.186e-6
-2.133, -3.181e-6
-2.132, -3.176e-6
-2.131, -3.171e-6
-2.130, -3.167e-6
-2.129, -3.162e-6
-2.128, -3.157e-6
-2.127, -3.152e-6
-2.126, -3.146e-6
-2.125, -3.141e-6
-2.124, -3.135e-6
-2.123, -3.131e-6
-2.122, -3.125e-6
-2.121, -3.120e-6
-2.120, -3.115e-6
-2.119, -3.109e-6
-2.118, -3.104e-6
-2.117, -3.099e-6
-2.116, -3.093e-6
-2.115, -3.087e-6
-2.114, -3.081e-6
-2.113, -3.076e-6
-2.112, -3.071e-6
-2.111, -3.067e-6
-2.110, -3.061e-6
-2.109, -3.056e-6
-2.108, -3.052e-6
-2.107, -3.046e-6
-2.106, -3.039e-6
-2.105, -3.033e-6
-2.104, -3.027e-6
-2.103, -3.023e-6
-2.102, -3.015e-6
-2.101, -3.010e-6
-2.100, -3.005e-6
-2.099, -3.000e-6
-2.098, -2.993e-6
-2.097, -2.987e-6
-2.096, -2.981e-6
-2.095, -2.977e-6
-2.094, -2.971e-6
-2.093, -2.966e-6
-2.092, -2.960e-6
-2.091, -2.955e-6
-2.090, -2.950e-6
-2.089, -2.944e-6
-2.088, -2.939e-6
-2.087, -2.933e-6
-2.086, -2.928e-6
-2.085, -2.922e-6
-2.084, -2.915e-6
-2.083, -2.910e-6
-2.082, -2.904e-6
-2.081, -2.898e-6
-2.080, -2.892e-6
-2.079, -2.887e-6
-2.078, -2.881e-6
-2.077, -2.875e-6
-2.076, -2.869e-6
-2.075, -2.864e-6
-2.074, -2.859e-6
-2.073, -2.853e-6
-2.072, -2.848e-6
-2.071, -2.843e-6
-2.070, -2.837e-6
-2.069, -2.832e-6
-2.068, -2.826e-6
-2.067, -2.819e-6
-2.066, -2.813e-6
-2.065, -2.808e-6
-2.064, -2.802e-6
-2.063, -2.797e-6
-2.062, -2.791e-6
-2.061, -2.786e-6
-2.060, -2.780e-6
-2.059, -2.774e-6
-2.058, -2.768e-6
-2.057, -2.762e-6
-2.056, -2.757e-6
-2.055, -2.752e-6
-2.054, -2.746e-6
-2.053, -2.741e-6
-2.052, -2.736e-6
-2.051, -2.730e-6
-2.050, -2.724e-6
-2.049, -2.720e-6
-2.048, -2.714e-6
-2.047, -2.709e-6
-2.046, -2.703e-6
-2.045, -2.697e-6
-2.044, -2.692e-6
-2.043, -2.686e-6
-2.042, -2.680e-6
-2.041, -2.676e-6
-2.040, -2.671e-6
-2.039, -2.666e-6
-2.038, -2.660e-6
-2.037, -2.655e-6
-2.036, -2.649e-6
-2.035, -2.645e-6
-2.034, -2.639e-6
-2.033, -2.633e-6
-2.032, -2.628e-6
-2.031, -2.622e-6
-2.030, -2.617e-6
-2.029, -2.611e-6
-2.028, -2.605e-6
-2.027, -2.600e-6
-2.026, -2.595e-6
-2.025, -2.591e-6
-2.024, -2.585e-6
-2.023, -2.580e-6
-2.022, -2.575e-6
-2.021, -2.570e-6
-2.020, -2.564e-6
-2.019, -2.559e-6
-2.018, -2.554e-6
-2.017, -2.549e-6
-2.016, -2.545e-6
-2.015, -2.539e-6
-2.014, -2.534e-6
-2.013, -2.529e-6
-2.012, -2.524e-6
-2.011, -2.518e-6
-2.010, -2.514e-6
-2.009, -2.509e-6
-2.008, -2.504e-6
-2.007, -2.499e-6
-2.006, -2.494e-6
-2.005, -2.490e-6
-2.004, -2.485e-6
-2.003, -2.481e-6
-2.002, -2.476e-6
-2.001, -2.473e-6
-2.000, -2.467e-6
-1.999, -2.462e-6
-1.998, -2.458e-6
-1.997, -2.454e-6
-1.996, -2.449e-6
-1.995, -2.444e-6
-1.994, -2.438e-6
-1.993, -2.435e-6
-1.992, -2.430e-6
-1.991, -2.425e-6
-1.990, -2.421e-6
-1.989, -2.417e-6
-1.988, -2.413e-6
-1.987, -2.409e-6
-1.986, -2.405e-6
-1.985, -2.401e-6
-1.984, -2.397e-6
-1.983, -2.392e-6
-1.982, -2.388e-6
-1.981, -2.384e-6
-1.980, -2.380e-6
-1.979, -2.376e-6
-1.978, -2.372e-6
-1.977, -2.368e-6
-1.976, -2.364e-6
-1.975, -2.360e-6
-1.974, -2.355e-6
-1.973, -2.352e-6
-1.972, -2.348e-6
-1.971, -2.344e-6
-1.970, -2.341e-6
-1.969, -2.337e-6
-1.968, -2.333e-6
-1.967, -2.331e-6
-1.966, -2.327e-6
-1.965, -2.323e-6
-1.964, -2.319e-6
-1.963, -2.316e-6
-1.962, -2.313e-6
-1.961, -2.309e-6
-1.960, -2.305e-6
-1.959, -2.302e-6
-1.958, -2.299e-6
-1.957, -2.295e-6
-1.956, -2.291e-6
-1.955, -2.288e-6
-1.954, -2.286e-6
-1.953, -2.283e-6
-1.952, -2.279e-6
-1.951, -2.276e-6
-1.950, -2.274e-6
-1.949, -2.271e-6
-1.948, -2.267e-6
-1.947, -2.263e-6
-1.946, -2.261e-6
-1.945, -2.258e-6
-1.944, -2.255e-6
-1.943, -2.252e-6
-1.942, -2.249e-6
-1.941, -2.246e-6
-1.940, -2.242e-6
-1.939, -2.239e-6
-1.938, -2.237e-6
-1.937, -2.235e-6
-1.936, -2.232e-6
-1.935, -2.229e-6
-1.934, -2.227e-6
-1.933, -2.226e-6
-1.932, -2.223e-6
-1.931, -2.220e-6
-1.930, -2.217e-6
-1.929, -2.216e-6
-1.928, -2.213e-6
-1.927, -2.210e-6
-1.926, -2.207e-6
-1.925, -2.205e-6
-1.924, -2.202e-6
-1.923, -2.200e-6
-1.922, -2.196e-6
-1.921, -2.195e-6
-1.920, -2.193e-6
-1.919, -2.191e-6
-1.918, -2.190e-6
-1.917, -2.188e-6
-1.916, -2.185e-6
-1.915, -2.183e-6
-1.914, -2.181e-6
-1.913, -2.180e-6
-1.912, -2.177e-6
-1.911, -2.174e-6
-1.910, -2.172e-6
-1.909, -2.171e-6
-1.908, -2.169e-6
-1.907, -2.167e-6
-1.906, -2.165e-6
-1.905, -2.164e-6
-1.904, -2.162e-6
-1.903, -2.159e-6
-1.902, -2.158e-6
-1.901, -2.156e-6
-1.900, -2.155e-6
-1.899, -2.154e-6
-1.898, -2.152e-6
-1.897, -2.151e-6
-1.896, -2.149e-6
-1.895, -2.147e-6
-1.894, -2.146e-6
-1.893, -2.144e-6
-1.892, -2.142e-6
-1.891, -2.140e-6
-1.890, -2.138e-6
-1.889, -2.137e-6
-1.888, -2.136e-6
-1.887, -2.135e-6
-1.886, -2.133e-6
-1.885, -2.132e-6
-1.884, -2.131e-6
-1.883, -2.131e-6
-1.882, -2.129e-6
-1.881, -2.127e-6
-1.880, -2.127e-6
-1.879, -2.126e-6
-1.878, -2.124e-6
-1.877, -2.122e-6
-1.876, -2.121e-6
-1.875, -2.120e-6
-1.874, -2.120e-6
-1.873, -2.119e-6
-1.872, -2.117e-6
-1.871, -2.116e-6
-1.870, -2.115e-6
-1.869, -2.114e-6
-1.868, -2.112e-6
-1.867, -2.111e-6
-1.866, -2.110e-6
-1.865, -2.110e-6
-1.864, -2.109e-6
-1.863, -2.108e-6
-1.862, -2.107e-6
-1.861, -2.107e-6
-1.860, -2.106e-6
-1.859, -2.105e-6
-1.858, -2.104e-6
-1.857, -2.103e-6
-1.856, -2.102e-6
-1.855, -2.100e-6
-1.854, -2.100e-6
-1.853, -2.099e-6
-1.852, -2.098e-6
-1.851, -2.098e-6
-1.850, -2.097e-6
-1.849, -2.097e-6
-1.848, -2.097e-6
-1.847, -2.095e-6
-1.846, -2.094e-6
-1.845, -2.094e-6
-1.844, -2.093e-6
-1.843, -2.092e-6
-1.842, -2.091e-6
-1.841, -2.091e-6
-1.840, -2.091e-6
-1.839, -2.090e-6
-1.838, -2.090e-6
-1.837, -2.090e-6
-1.836, -2.090e-6
-1.835, -2.089e-6
-1.834, -2.088e-6
-1.833, -2.087e-6
-1.832, -2.087e-6
-1.831, -2.086e-6
-1.830, -2.085e-6
-1.829, -2.085e-6
-1.828, -2.085e-6
-1.827, -2.085e-6
-1.826, -2.084e-6
-1.825, -2.084e-6
-1.824, -2.085e-6
-1.823, -2.084e-6
-1.822, -2.083e-6
-1.821, -2.082e-6
-1.820, -2.082e-6
-1.819, -2.082e-6
-1.818, -2.081e-6
-1.817, -2.081e-6
-1.816, -2.080e-6
-1.815, -2.080e-6
-1.814, -2.080e-6
-1.813, -2.080e-6
-1.812, -2.080e-6
-1.811, -2.079e-6
-1.810, -2.079e-6
-1.809, -2.079e-6
-1.808, -2.078e-6
-1.807, -2.077e-6
-1.806, -2.077e-6
-1.805, -2.077e-6
-1.804, -2.077e-6
-1.803, -2.076e-6
-1.802, -2.076e-6
-1.801, -2.076e-6
-1.800, -2.076e-6
-1.799, -2.075e-6
-1.798, -2.075e-6
-1.797, -2.075e-6
-1.796, -2.075e-6
-1.795, -2.075e-6
-1.794, -2.074e-6
-1.793, -2.074e-6
-1.792, -2.073e-6
-1.791, -2.073e-6
-1.790, -2.073e-6
-1.789, -2.073e-6
-1.788, -2.073e-6
-1.787, -2.073e-6
-1.786, -2.073e-6
-1.785, -2.072e-6
-1.784, -2.071e-6
-1.783, -2.072e-6
-1.782, -2.071e-6
-1.781, -2.071e-6
-1.780, -2.071e-6
-1.779, -2.071e-6
-1.778, -2.071e-6
-1.777, -2.071e-6
-1.776, -2.071e-6
-1.775, -2.071e-6
-1.774, -2.070e-6
-1.773, -2.071e-6
-1.772, -2.070e-6
-1.771, -2.070e-6
-1.770, -2.070e-6
-1.769, -2.070e-6
-1.768, -2.070e-6
-1.767, -2.070e-6
-1.766, -2.069e-6
-1.765, -2.070e-6
-1.764, -2.070e-6
-1.763, -2.070e-6
-1.762, -2.069e-6
-1.761, -2.069e-6
-1.760, -2.069e-6
-1.759, -2.068e-6
-1.758, -2.068e-6
-1.757, -2.068e-6
-1.756, -2.068e-6
-1.755, -2.068e-6
-1.754, -2.068e-6
-1.753, -2.068e-6
-1.752, -2.069e-6
-1.751, -2.069e-6
-1.750, -2.068e-6
-1.749, -2.067e-6
-1.748, -2.068e-6
-1.747, -2.068e-6
-1.746, -2.067e-6
-1.745, -2.066e-6
-1.744, -2.067e-6
-1.743, -2.067e-6
-1.742, -2.067e-6
-1.741, -2.067e-6
-1.740, -2.067e-6
-1.739, -2.067e-6
-1.738, -2.067e-6
-1.737, -2.066e-6
-1.736, -2.066e-6
-1.735, -2.066e-6
-1.734, -2.067e-6
-1.733, -2.066e-6
-1.732, -2.066e-6
-1.731, -2.066e-6
-1.730, -2.066e-6
-1.729, -2.066e-6
-1.728, -2.065e-6
-1.727, -2.065e-6
-1.726, -2.065e-6
-1.725, -2.064e-6
-1.724, -2.065e-6
-1.723, -2.065e-6
-1.722, -2.065e-6
-1.721, -2.064e-6
-1.720, -2.064e-6
-1.719, -2.063e-6
-1.718, -2.064e-6
-1.717, -2.063e-6
-1.716, -2.064e-6
-1.715, -2.063e-6
-1.714, -2.063e-6
-1.713, -2.063e-6
-1.712, -2.062e-6
-1.711, -2.062e-6
-1.710, -2.062e-6
-1.709, -2.061e-6
-1.708, -2.061e-6
-1.707, -2.061e-6
-1.706, -2.061e-6
-1.705, -2.061e-6
-1.704, -2.060e-6
-1.703, -2.060e-6
-1.702, -2.060e-6
-1.701, -2.060e-6
-1.700, -2.059e-6
-1.699, -2.059e-6
-1.698, -2.059e-6
-1.697, -2.058e-6
-1.696, -2.057e-6
-1.695, -2.057e-6
-1.694, -2.057e-6
-1.693, -2.057e-6
-1.692, -2.057e-6
-1.691, -2.055e-6
-1.690, -2.055e-6
-1.689, -2.055e-6
-1.688, -2.053e-6
-1.687, -2.053e-6
-1.686, -2.053e-6
-1.685, -2.053e-6
-1.684, -2.052e-6
-1.683, -2.051e-6
-1.682, -2.050e-6
-1.681, -2.050e-6
-1.680, -2.049e-6
-1.679, -2.048e-6
-1.678, -2.047e-6
-1.677, -2.047e-6
-1.676, -2.046e-6
-1.675, -2.045e-6
-1.674, -2.043e-6
-1.673, -2.042e-6
-1.672, -2.042e-6
-1.671, -2.041e-6
-1.670, -2.041e-6
-1.669, -2.039e-6
-1.668, -2.038e-6
-1.667, -2.037e-6
-1.666, -2.036e-6
-1.665, -2.034e-6
-1.664, -2.033e-6
-1.663, -2.031e-6
-1.662, -2.030e-6
-1.661, -2.028e-6
-1.660, -2.027e-6
-1.659, -2.026e-6
-1.658, -2.024e-6
-1.657, -2.022e-6
-1.656, -2.020e-6
-1.655, -2.019e-6
-1.654, -2.017e-6
-1.653, -2.015e-6
-1.652, -2.014e-6
-1.651, -2.012e-6
-1.650, -2.011e-6
-1.649, -2.009e-6
-1.648, -2.006e-6
-1.647, -2.004e-6
-1.646, -2.002e-6
-1.645, -1.999e-6
-1.644, -1.996e-6
-1.643, -1.992e-6
-1.642, -1.990e-6
-1.641, -1.987e-6
-1.640, -1.983e-6
-1.639, -1.980e-6
-1.638, -1.979e-6
-1.637, -1.975e-6
-1.636, -1.971e-6
-1.635, -1.966e-6
-1.634, -1.963e-6
-1.633, -1.960e-6
-1.632, -1.956e-6
-1.631, -1.950e-6
-1.630, -1.946e-6
-1.629, -1.941e-6
-1.628, -1.937e-6
-1.627, -1.931e-6
-1.626, -1.926e-6
-1.625, -1.921e-6
-1.624, -1.916e-6
-1.623, -1.910e-6
-1.622, -1.904e-6
-1.621, -1.898e-6
-1.620, -1.892e-6
-1.619, -1.885e-6
-1.618, -1.878e-6
-1.617, -1.871e-6
-1.616, -1.864e-6
-1.615, -1.855e-6
-1.614, -1.848e-6
-1.613, -1.839e-6
-1.612, -1.831e-6
-1.611, -1.822e-6
-1.610, -1.814e-6
-1.609, -1.804e-6
-1.608, -1.795e-6
-1.607, -1.784e-6
-1.606, -1.774e-6
-1.605, -1.762e-6
-1.604, -1.752e-6
-1.603, -1.741e-6
-1.602, -1.729e-6
-1.601, -1.716e-6
-1.600, -1.705e-6
-1.599, -1.691e-6
-1.598, -1.678e-6
-1.597, -1.663e-6
-1.596, -1.649e-6
-1.595, -1.634e-6
-1.594, -1.619e-6
-1.593, -1.602e-6
-1.592, -1.586e-6
-1.591, -1.568e-6
-1.590, -1.552e-6
-1.589, -1.532e-6
-1.588, -1.515e-6
-1.587, -1.494e-6
-1.586, -1.476e-6
-1.585, -1.454e-6
-1.584, -1.435e-6
-1.583, -1.410e-6
-1.582, -1.390e-6
-1.581, -1.366e-6
-1.580, -1.344e-6
-1.579, -1.319e-6
-1.578, -1.296e-6
-1.577, -1.268e-6
-1.576, -1.244e-6
-1.575, -1.216e-6
-1.574, -1.191e-6
-1.573, -1.160e-6
-1.572, -1.134e-6
-1.571, -1.103e-6
-1.570, -1.073e-6
-1.569, -1.041e-6
-1.568, -1.011e-6
-1.567, -9.771e-7
-1.566, -9.461e-7
-1.565, -9.103e-7
-1.564, -8.769e-7
-1.563, -8.392e-7
-1.562, -8.047e-7
-1.561, -7.644e-7
-1.560, -7.295e-7
-1.559, -6.886e-7
-1.558, -6.525e-7
-1.557, -6.103e-7
-1.556, -5.747e-7
-1.555, -5.335e-7
-1.554, -4.942e-7
-1.553, -4.496e-7
-1.552, -4.096e-7
-1.551, -3.638e-7
-1.550, -3.251e-7
-1.549, -2.779e-7
-1.548, -2.369e-7
-1.547, -1.908e-7
-1.546, -1.476e-7
-1.545, -9.723e-8
-1.544, -5.452e-8
-1.543, -5.195e-9
-1.542, 3.492e-8
-1.541, 8.313e-8
-1.540, 1.280e-7
-1.539, 1.793e-7
-1.538, 2.223e-7
-1.537, 2.725e-7
-1.536, 3.207e-7
-1.535, 3.738e-7
-1.534, 4.153e-7
-1.533, 4.632e-7
-1.532, 5.052e-7
-1.531, 5.544e-7
-1.530, 5.958e-7
-1.529, 6.411e-7
-1.528, 6.822e-7
-1.527, 7.307e-7
-1.526, 7.711e-7
-1.525, 8.195e-7
-1.524, 8.579e-7
-1.523, 8.988e-7
-1.522, 9.378e-7
-1.521, 9.822e-7
-1.520, 1.018e-6
-1.519, 1.062e-6
-1.518, 1.096e-6
-1.517, 1.136e-6
-1.516, 1.169e-6
-1.515, 1.208e-6
-1.514, 1.240e-6
-1.513, 1.275e-6
-1.512, 1.304e-6
-1.511, 1.340e-6
-1.510, 1.367e-6
-1.509, 1.401e-6
-1.508, 1.422e-6
-1.507, 1.453e-6
-1.506, 1.473e-6
-1.505, 1.499e-6
-1.504, 1.517e-6
-1.503, 1.544e-6
-1.502, 1.561e-6
-1.501, 1.582e-6
-1.500, 1.598e-6
-1.499, 1.614e-6
-1.498, 1.627e-6
-1.497, 1.643e-6
-1.496, 1.653e-6
-1.495, 1.667e-6
-1.494, 1.678e-6
-1.493, 1.690e-6
-1.492, 1.695e-6
-1.491, 1.703e-6
-1.490, 1.708e-6
-1.489, 1.714e-6
-1.488, 1.717e-6
-1.487, 1.722e-6
-1.486, 1.721e-6
-1.485, 1.725e-6
-1.484, 1.725e-6
-1.483, 1.725e-6
-1.482, 1.722e-6
-1.481, 1.723e-6
-1.480, 1.717e-6
-1.479, 1.716e-6
-1.478, 1.708e-6
-1.477, 1.705e-6
-1.476, 1.696e-6
-1.475, 1.692e-6
-1.474, 1.683e-6
-1.473, 1.677e-6
-1.472, 1.666e-6
-1.471, 1.659e-6
-1.470, 1.648e-6
-1.469, 1.640e-6
-1.468, 1.628e-6
-1.467, 1.620e-6
-1.466, 1.607e-6
-1.465, 1.596e-6
-1.464, 1.583e-6
-1.463, 1.573e-6
-1.462, 1.559e-6
-1.461, 1.549e-6
-1.460, 1.535e-6
-1.459, 1.523e-6
-1.458, 1.510e-6
-1.457, 1.497e-6
-1.456, 1.483e-6
-1.455, 1.471e-6
-1.454, 1.456e-6
-1.453, 1.443e-6
-1.452, 1.428e-6
-1.451, 1.415e-6
-1.450, 1.400e-6
-1.449, 1.388e-6
-1.448, 1.374e-6
-1.447, 1.361e-6
-1.446, 1.345e-6
-1.445, 1.332e-6
-1.444, 1.317e-6
-1.443, 1.305e-6
-1.442, 1.290e-6
-1.441, 1.277e-6
-1.440, 1.263e-6
-1.439, 1.249e-6
-1.438, 1.235e-6
-1.437, 1.222e-6
-1.436, 1.209e-6
-1.435, 1.196e-6
-1.434, 1.183e-6
-1.433, 1.171e-6
-1.432, 1.157e-6
-1.431, 1.145e-6
-1.430, 1.131e-6
-1.429, 1.119e-6
-1.428, 1.106e-6
-1.427, 1.094e-6
-1.426, 1.081e-6
-1.425, 1.069e-6
-1.424, 1.056e-6
-1.423, 1.045e-6
-1.422, 1.033e-6
-1.421, 1.021e-6
-1.420, 1.010e-6
-1.419, 9.990e-7
-1.418, 9.871e-7
-1.417, 9.762e-7
-1.416, 9.650e-7
-1.415, 9.542e-7
-1.414, 9.428e-7
-1.413, 9.325e-7
-1.412, 9.225e-7
-1.411, 9.125e-7
-1.410, 9.018e-7
-1.409, 8.921e-7
-1.408, 8.818e-7
-1.407, 8.724e-7
-1.406, 8.621e-7
-1.405, 8.527e-7
-1.404, 8.431e-7
-1.403, 8.334e-7
-1.402, 8.241e-7
-1.401, 8.151e-7
-1.400, 8.058e-7
-1.399, 7.977e-7
-1.398, 7.886e-7
-1.397, 7.801e-7
-1.396, 7.710e-7
-1.395, 7.631e-7
-1.394, 7.544e-7
-1.393, 7.466e-7
-1.392, 7.375e-7
-1.391, 7.302e-7
-1.390, 7.222e-7
-1.389, 7.148e-7
-1.388, 7.068e-7
-1.387, 6.998e-7
-1.386, 6.915e-7
-1.385, 6.844e-7
-1.384, 6.767e-7
-1.383, 6.699e-7
-1.382, 6.625e-7
-1.381, 6.557e-7
-1.380, 6.485e-7
-1.379, 6.419e-7
-1.378, 6.349e-7
-1.377, 6.288e-7
-1.376, 6.215e-7
-1.375, 6.155e-7
-1.374, 6.090e-7
-1.373, 6.035e-7
-1.372, 5.963e-7
-1.371, 5.901e-7
-1.370, 5.841e-7
-1.369, 5.787e-7
-1.368, 5.723e-7
-1.367, 5.667e-7
-1.366, 5.605e-7
-1.365, 5.554e-7
-1.364, 5.492e-7
-1.363, 5.434e-7
-1.362, 5.374e-7
-1.361, 5.327e-7
-1.360, 5.270e-7
-1.359, 5.219e-7
-1.358, 5.157e-7
-1.357, 5.111e-7
-1.356, 5.057e-7
-1.355, 5.010e-7
-1.354, 4.955e-7
-1.353, 4.905e-7
-1.352, 4.855e-7
-1.351, 4.807e-7
-1.350, 4.755e-7
-1.349, 4.713e-7
-1.348, 4.659e-7
-1.347, 4.617e-7
-1.346, 4.568e-7
-1.345, 4.527e-7
-1.344, 4.477e-7
-1.343, 4.430e-7
-1.342, 4.381e-7
-1.341, 4.345e-7
-1.340, 4.299e-7
-1.339, 4.259e-7
-1.338, 4.214e-7
-1.337, 4.178e-7
-1.336, 4.139e-7
-1.335, 4.101e-7
-1.334, 4.060e-7
-1.333, 4.020e-7
-1.332, 3.974e-7
-1.331, 3.937e-7
-1.330, 3.895e-7
-1.329, 3.864e-7
-1.328, 3.819e-7
-1.327, 3.780e-7
-1.326, 3.740e-7
-1.325, 3.707e-7
-1.324, 3.668e-7
-1.323, 3.631e-7
-1.322, 3.594e-7
-1.321, 3.564e-7
-1.320, 3.528e-7
-1.319, 3.492e-7
-1.318, 3.445e-7
-1.317, 3.418e-7
-1.316, 3.384e-7
-1.315, 3.354e-7
-1.314, 3.315e-7
-1.313, 3.286e-7
-1.312, 3.251e-7
-1.311, 3.218e-7
-1.310, 3.179e-7
-1.309, 3.151e-7
-1.308, 3.120e-7
-1.307, 3.091e-7
-1.306, 3.057e-7
-1.305, 3.026e-7
-1.304, 2.990e-7
-1.303, 2.961e-7
-1.302, 2.929e-7
-1.301, 2.900e-7
-1.300, 2.872e-7
-1.299, 2.844e-7
-1.298, 2.814e-7
-1.297, 2.791e-7
-1.296, 2.760e-7
-1.295, 2.731e-7
-1.294, 2.700e-7
-1.293, 2.675e-7
-1.292, 2.646e-7
-1.291, 2.616e-7
-1.290, 2.586e-7
-1.289, 2.565e-7
-1.288, 2.536e-7
-1.287, 2.510e-7
-1.286, 2.478e-7
-1.285, 2.454e-7
-1.284, 2.430e-7
-1.283, 2.407e-7
-1.282, 2.378e-7
-1.281, 2.356e-7
-1.280, 2.331e-7
-1.279, 2.312e-7
-1.278, 2.283e-7
-1.277, 2.260e-7
-1.276, 2.235e-7
-1.275, 2.213e-7
-1.274, 2.187e-7
-1.273, 2.166e-7
-1.272, 2.142e-7
-1.271, 2.124e-7
-1.270, 2.095e-7
-1.269, 2.074e-7
-1.268, 2.050e-7
-1.267, 2.026e-7
-1.266, 1.998e-7
-1.265, 1.977e-7
-1.264, 1.956e-7
-1.263, 1.940e-7
-1.262, 1.915e-7
-1.261, 1.897e-7
-1.260, 1.874e-7
-1.259, 1.855e-7
-1.258, 1.830e-7
-1.257, 1.810e-7
-1.256, 1.786e-7
-1.255, 1.767e-7
-1.254, 1.744e-7
-1.253, 1.725e-7
-1.252, 1.703e-7
-1.251, 1.685e-7
-1.250, 1.666e-7
-1.249, 1.651e-7
-1.248, 1.626e-7
-1.247, 1.605e-7
-1.246, 1.582e-7
-1.245, 1.569e-7
-1.244, 1.551e-7
-1.243, 1.532e-7
-1.242, 1.502e-7
-1.241, 1.487e-7
-1.240, 1.469e-7
-1.239, 1.455e-7
-1.238, 1.432e-7
-1.237, 1.418e-7
-1.236, 1.401e-7
-1.235, 1.386e-7
-1.234, 1.364e-7
-1.233, 1.346e-7
-1.232, 1.330e-7
-1.231, 1.317e-7
-1.230, 1.293e-7
-1.229, 1.269e-7
-1.228, 1.253e-7
-1.227, 1.241e-7
-1.226, 1.221e-7
-1.225, 1.204e-7
-1.224, 1.186e-7
-1.223, 1.175e-7
-1.222, 1.153e-7
-1.221, 1.138e-7
-1.220, 1.120e-7
-1.219, 1.113e-7
-1.218, 1.093e-7
-1.217, 1.076e-7
-1.216, 1.055e-7
-1.215, 1.046e-7
-1.214, 1.027e-7
-1.213, 1.008e-7
-1.212, 9.854e-8
-1.211, 9.776e-8
-1.210, 9.645e-8
-1.209, 9.494e-8
-1.208, 9.286e-8
-1.207, 9.194e-8
-1.206, 9.065e-8
-1.205, 8.925e-8
-1.204, 8.724e-8
-1.203, 8.619e-8
-1.202, 8.478e-8
-1.201, 8.317e-8
-1.200, 8.106e-8
-1.199, 7.988e-8
-1.198, 7.865e-8
-1.197, 7.742e-8
-1.196, 7.540e-8
-1.195, 7.426e-8
-1.194, 7.266e-8
-1.193, 7.164e-8
-1.192, 6.960e-8
-1.191, 6.839e-8
-1.190, 6.706e-8
-1.189, 6.615e-8
-1.188, 6.455e-8
-1.187, 6.366e-8
-1.186, 6.218e-8
-1.185, 6.139e-8
-1.184, 5.963e-8
-1.183, 5.872e-8
-1.182, 5.713e-8
-1.181, 5.634e-8
-1.180, 5.471e-8
-1.179, 5.359e-8
-1.178, 5.200e-8
-1.177, 5.130e-8
-1.176, 4.975e-8
-1.175, 4.867e-8
-1.174, 4.706e-8
-1.173, 4.629e-8
-1.172, 4.491e-8
-1.171, 4.373e-8
-1.170, 4.217e-8
-1.169, 4.137e-8
-1.168, 4.005e-8
-1.167, 3.918e-8
-1.166, 3.746e-8
-1.165, 3.666e-8
-1.164, 3.522e-8
-1.163, 3.443e-8
-1.162, 3.302e-8
-1.161, 3.200e-8
-1.160, 3.018e-8
-1.159, 2.934e-8
-1.158, 2.770e-8
-1.157, 2.708e-8
-1.156, 2.544e-8
-1.155, 2.455e-8
-1.154, 2.325e-8
-1.153, 2.271e-8
-1.152, 2.150e-8
-1.151, 2.064e-8
-1.150, 1.916e-8
-1.149, 1.843e-8
-1.148, 1.721e-8
-1.147, 1.631e-8
-1.146, 1.492e-8
-1.145, 1.419e-8
-1.144, 1.303e-8
-1.143, 1.217e-8
-1.142, 1.082e-8
-1.141, 1.024e-8
-1.140, 8.958e-9
-1.139, 7.773e-9
-1.138, 6.431e-9
-1.137, 5.912e-9
-1.136, 4.413e-9
-1.135, 3.649e-9
-1.134, 2.298e-9
-1.133, 1.818e-9
-1.132, 6.817e-10
-1.131, -5.289e-11
-1.130, -1.140e-9
-1.129, -1.718e-9
-1.128, -2.717e-9
-1.127, -3.412e-9
-1.126, -4.118e-9
-1.125, -4.980e-9
-1.124, -6.223e-9
-1.123, -6.997e-9
-1.122, -8.153e-9
-1.121, -8.760e-9
-1.120, -1.024e-8
-1.119, -1.098e-8
-1.118, -1.233e-8
-1.117, -1.254e-8
-1.116, -1.401e-8
-1.115, -1.468e-8
-1.114, -1.585e-8
-1.113, -1.610e-8
-1.112, -1.759e-8
-1.111, -1.819e-8
-1.110, -1.951e-8
-1.109, -1.994e-8
-1.108, -2.138e-8
-1.107, -2.223e-8
-1.106, -2.325e-8
-1.105, -2.337e-8
-1.104, -2.473e-8
-1.103, -2.546e-8
-1.102, -2.640e-8
-1.101, -2.665e-8
-1.100, -2.791e-8
-1.099, -2.882e-8
-1.098, -2.977e-8
-1.097, -3.003e-8
-1.096, -3.108e-8
-1.095, -3.191e-8
-1.094, -3.306e-8
-1.093, -3.332e-8
-1.092, -3.426e-8
-1.091, -3.503e-8
-1.090, -3.638e-8
-1.089, -3.694e-8
-1.088, -3.764e-8
-1.087, -3.816e-8
-1.086, -3.949e-8
-1.085, -3.995e-8
-1.084, -4.076e-8
-1.083, -4.119e-8
-1.082, -4.236e-8
-1.081, -4.323e-8
-1.080, -4.430e-8
-1.079, -4.477e-8
-1.078, -4.585e-8
-1.077, -4.654e-8
-1.076, -4.768e-8
-1.075, -4.793e-8
-1.074, -4.905e-8
-1.073, -4.955e-8
-1.072, -5.049e-8
-1.071, -5.075e-8
-1.070, -5.171e-8
-1.069, -5.214e-8
-1.068, -5.317e-8
-1.067, -5.349e-8
-1.066, -5.470e-8
-1.065, -5.526e-8
-1.064, -5.643e-8
-1.063, -5.696e-8
-1.062, -5.812e-8
-1.061, -5.844e-8
-1.060, -5.911e-8
-1.059, -5.969e-8
-1.058, -6.077e-8
-1.057, -6.117e-8
-1.056, -6.193e-8
-1.055, -6.228e-8
-1.054, -6.347e-8
-1.053, -6.393e-8
-1.052, -6.451e-8
-1.051, -6.485e-8
-1.050, -6.580e-8
-1.049, -6.620e-8
-1.048, -6.717e-8
-1.047, -6.746e-8
-1.046, -6.873e-8
-1.045, -6.918e-8
-1.044, -7.031e-8
-1.043, -7.054e-8
-1.042, -7.169e-8
-1.041, -7.225e-8
-1.040, -7.288e-8
-1.039, -7.313e-8
-1.038, -7.440e-8
-1.037, -7.481e-8
-1.036, -7.553e-8
-1.035, -7.566e-8
-1.034, -7.683e-8
-1.033, -7.691e-8
-1.032, -7.773e-8
-1.031, -7.788e-8
-1.030, -7.910e-8
-1.029, -7.953e-8
-1.028, -8.030e-8
-1.027, -8.065e-8
-1.026, -8.154e-8
-1.025, -8.179e-8
-1.024, -8.245e-8
-1.023, -8.279e-8
-1.022, -8.392e-8
-1.021, -8.412e-8
-1.020, -8.517e-8
-1.019, -8.539e-8
-1.018, -8.608e-8
-1.017, -8.612e-8
-1.016, -8.718e-8
-1.015, -8.728e-8
-1.014, -8.842e-8
-1.013, -8.849e-8
-1.012, -8.957e-8
-1.011, -8.998e-8
-1.010, -9.091e-8
-1.009, -9.088e-8
-1.008, -9.197e-8
-1.007, -9.205e-8
-1.006, -9.330e-8
-1.005, -9.349e-8
-1.004, -9.473e-8
-1.003, -9.502e-8
-1.002, -9.604e-8
-1.001, -9.607e-8
-1.000, -9.710e-8
-0.999, -9.692e-8
-0.998, -9.784e-8
-0.997, -9.800e-8
-0.996, -9.895e-8
-0.995, -9.913e-8
-0.994, -9.987e-8
-0.993, -1.002e-7
-0.992, -1.011e-7
-0.991, -1.013e-7
-0.990, -1.021e-7
-0.989, -1.023e-7
-0.988, -1.031e-7
-0.987, -1.032e-7
-0.986, -1.040e-7
-0.985, -1.042e-7
-0.984, -1.049e-7
-0.983, -1.052e-7
-0.982, -1.060e-7
-0.981, -1.061e-7
-0.980, -1.070e-7
-0.979, -1.073e-7
-0.978, -1.082e-7
-0.977, -1.079e-7
-0.976, -1.088e-7
-0.975, -1.090e-7
-0.974, -1.101e-7
-0.973, -1.097e-7
-0.972, -1.106e-7
-0.971, -1.110e-7
-0.970, -1.120e-7
-0.969, -1.117e-7
-0.968, -1.126e-7
-0.967, -1.128e-7
-0.966, -1.139e-7
-0.965, -1.136e-7
-0.964, -1.140e-7
-0.963, -1.144e-7
-0.962, -1.152e-7
-0.961, -1.154e-7
-0.960, -1.160e-7
-0.959, -1.163e-7
-0.958, -1.173e-7
-0.957, -1.175e-7
-0.956, -1.181e-7
-0.955, -1.182e-7
-0.954, -1.192e-7
-0.953, -1.192e-7
-0.952, -1.197e-7
-0.951, -1.197e-7
-0.950, -1.207e-7
-0.949, -1.208e-7
-0.948, -1.215e-7
-0.947, -1.211e-7
-0.946, -1.222e-7
-0.945, -1.224e-7
-0.944, -1.231e-7
-0.943, -1.230e-7
-0.942, -1.238e-7
-0.941, -1.239e-7
-0.940, -1.247e-7
-0.939, -1.245e-7
-0.938, -1.251e-7
-0.937, -1.253e-7
-0.936, -1.262e-7
-0.935, -1.260e-7
-0.934, -1.268e-7
-0.933, -1.267e-7
-0.932, -1.275e-7
-0.931, -1.271e-7
-0.930, -1.277e-7
-0.929, -1.278e-7
-0.928, -1.286e-7
-0.927, -1.285e-7
-0.926, -1.292e-7
-0.925, -1.293e-7
-0.924, -1.301e-7
-0.923, -1.301e-7
-0.922, -1.306e-7
-0.921, -1.305e-7
-0.920, -1.315e-7
-0.919, -1.312e-7
-0.918, -1.322e-7
-0.917, -1.321e-7
-0.916, -1.329e-7
-0.915, -1.327e-7
-0.914, -1.333e-7
-0.913, -1.333e-7
-0.912, -1.339e-7
-0.911, -1.337e-7
-0.910, -1.342e-7
-0.909, -1.344e-7
-0.908, -1.353e-7
-0.907, -1.351e-7
-0.906, -1.355e-7
-0.905, -1.356e-7
-0.904, -1.363e-7
-0.903, -1.362e-7
-0.902, -1.367e-7
-0.901, -1.368e-7
-0.900, -1.375e-7
-0.899, -1.371e-7
-0.898, -1.376e-7
-0.897, -1.377e-7
-0.896, -1.385e-7
-0.895, -1.380e-7
-0.894, -1.385e-7
-0.893, -1.385e-7
-0.892, -1.394e-7
-0.891, -1.388e-7
-0.890, -1.393e-7
-0.889, -1.393e-7
-0.888, -1.403e-7
-0.887, -1.399e-7
-0.886, -1.402e-7
-0.885, -1.401e-7
-0.884, -1.410e-7
-0.883, -1.410e-7
-0.882, -1.414e-7
-0.881, -1.410e-7
-0.880, -1.417e-7
-0.879, -1.413e-7
-0.878, -1.421e-7
-0.877, -1.416e-7
-0.876, -1.423e-7
-0.875, -1.421e-7
-0.874, -1.429e-7
-0.873, -1.425e-7
-0.872, -1.432e-7
-0.871, -1.430e-7
-0.870, -1.433e-7
-0.869, -1.432e-7
-0.868, -1.437e-7
-0.867, -1.435e-7
-0.866, -1.439e-7
-0.865, -1.439e-7
-0.864, -1.445e-7
-0.863, -1.443e-7
-0.862, -1.449e-7
-0.861, -1.442e-7
-0.860, -1.449e-7
-0.859, -1.447e-7
-0.858, -1.451e-7
-0.857, -1.446e-7
-0.856, -1.454e-7
-0.855, -1.450e-7
-0.854, -1.455e-7
-0.853, -1.449e-7
-0.852, -1.456e-7
-0.851, -1.454e-7
-0.850, -1.461e-7
-0.849, -1.455e-7
-0.848, -1.461e-7
-0.847, -1.457e-7
-0.846, -1.463e-7
-0.845, -1.456e-7
-0.844, -1.461e-7
-0.843, -1.457e-7
-0.842, -1.463e-7
-0.841, -1.457e-7
-0.840, -1.464e-7
-0.839, -1.461e-7
-0.838, -1.463e-7
-0.837, -1.459e-7
-0.836, -1.465e-7
-0.835, -1.462e-7
-0.834, -1.468e-7
-0.833, -1.461e-7
-0.832, -1.467e-7
-0.831, -1.462e-7
-0.830, -1.468e-7
-0.829, -1.460e-7
-0.828, -1.464e-7
-0.827, -1.463e-7
-0.826, -1.468e-7
-0.825, -1.462e-7
-0.824, -1.466e-7
-0.823, -1.459e-7
-0.822, -1.465e-7
-0.821, -1.460e-7
-0.820, -1.464e-7
-0.819, -1.465e-7
-0.818, -1.466e-7
-0.817, -1.462e-7
-0.816, -1.464e-7
-0.815, -1.460e-7
-0.814, -1.464e-7
-0.813, -1.459e-7
-0.812, -1.463e-7
-0.811, -1.459e-7
-0.810, -1.463e-7
-0.809, -1.457e-7
-0.808, -1.461e-7
-0.807, -1.456e-7
-0.806, -1.460e-7
-0.805, -1.452e-7
-0.804, -1.454e-7
-0.803, -1.449e-7
-0.802, -1.453e-7
-0.801, -1.448e-7
-0.800, -1.455e-7
-0.799, -1.450e-7
-0.798, -1.455e-7
-0.797, -1.446e-7
-0.796, -1.450e-7
-0.795, -1.446e-7
-0.794, -1.448e-7
-0.793, -1.438e-7
-0.792, -1.446e-7
-0.791, -1.438e-7
-0.790, -1.442e-7
-0.789, -1.433e-7
-0.788, -1.435e-7
-0.787, -1.433e-7
-0.786, -1.436e-7
-0.785, -1.426e-7
-0.784, -1.427e-7
-0.783, -1.421e-7
-0.782, -1.426e-7
-0.781, -1.417e-7
-0.780, -1.419e-7
-0.779, -1.413e-7
-0.778, -1.418e-7
-0.777, -1.410e-7
-0.776, -1.410e-7
-0.775, -1.403e-7
-0.774, -1.410e-7
-0.773, -1.402e-7
-0.772, -1.401e-7
-0.771, -1.393e-7
-0.770, -1.398e-7
-0.769, -1.391e-7
-0.768, -1.390e-7
-0.767, -1.382e-7
-0.766, -1.385e-7
-0.765, -1.380e-7
-0.764, -1.380e-7
-0.763, -1.373e-7
-0.762, -1.375e-7
-0.761, -1.372e-7
-0.760, -1.371e-7
-0.759, -1.361e-7
-0.758, -1.362e-7
-0.757, -1.356e-7
-0.756, -1.357e-7
-0.755, -1.350e-7
-0.754, -1.348e-7
-0.753, -1.342e-7
-0.752, -1.340e-7
-0.751, -1.332e-7
-0.750, -1.333e-7
-0.749, -1.325e-7
-0.748, -1.324e-7
-0.747, -1.315e-7
-0.746, -1.314e-7
-0.745, -1.307e-7
-0.744, -1.306e-7
-0.743, -1.297e-7
-0.742, -1.294e-7
-0.741, -1.289e-7
-0.740, -1.287e-7
-0.739, -1.279e-7
-0.738, -1.276e-7
-0.737, -1.268e-7
-0.736, -1.269e-7
-0.735, -1.258e-7
-0.734, -1.257e-7
-0.733, -1.248e-7
-0.732, -1.248e-7
-0.731, -1.239e-7
-0.730, -1.238e-7
-0.729, -1.229e-7
-0.728, -1.227e-7
-0.727, -1.216e-7
-0.726, -1.217e-7
-0.725, -1.205e-7
-0.724, -1.203e-7
-0.723, -1.193e-7
-0.722, -1.191e-7
-0.721, -1.180e-7
-0.720, -1.177e-7
-0.719, -1.166e-7
-0.718, -1.163e-7
-0.717, -1.147e-7
-0.716, -1.147e-7
-0.715, -1.138e-7
-0.714, -1.134e-7
-0.713, -1.122e-7
-0.712, -1.121e-7
-0.711, -1.108e-7
-0.710, -1.105e-7
-0.709, -1.093e-7
-0.708, -1.089e-7
-0.707, -1.077e-7
-0.706, -1.072e-7
-0.705, -1.061e-7
-0.704, -1.057e-7
-0.703, -1.044e-7
-0.702, -1.040e-7
-0.701, -1.027e-7
-0.700, -1.021e-7
-0.699, -1.010e-7
-0.698, -1.007e-7
-0.697, -9.951e-8
-0.696, -9.908e-8
-0.695, -9.768e-8
-0.694, -9.728e-8
-0.693, -9.586e-8
-0.692, -9.523e-8
-0.691, -9.330e-8
-0.690, -9.275e-8
-0.689, -9.127e-8
-0.688, -9.045e-8
-0.687, -8.900e-8
-0.686, -8.844e-8
-0.685, -8.717e-8
-0.684, -8.643e-8
-0.683, -8.504e-8
-0.682, -8.425e-8
-0.681, -8.287e-8
-0.680, -8.206e-8
-0.679, -8.052e-8
-0.678, -7.993e-8
-0.677, -7.834e-8
-0.676, -7.767e-8
-0.675, -7.609e-8
-0.674, -7.525e-8
-0.673, -7.369e-8
-0.672, -7.306e-8
-0.671, -7.143e-8
-0.670, -7.047e-8
-0.669, -6.875e-8
-0.668, -6.787e-8
-0.667, -6.599e-8
-0.666, -6.508e-8
-0.665, -6.328e-8
-0.664, -6.261e-8
-0.663, -6.094e-8
-0.662, -5.998e-8
-0.661, -5.843e-8
-0.660, -5.733e-8
-0.659, -5.552e-8
-0.658, -5.443e-8
-0.657, -5.267e-8
-0.656, -5.177e-8
-0.655, -4.984e-8
-0.654, -4.874e-8
-0.653, -4.689e-8
-0.652, -4.577e-8
-0.651, -4.366e-8
-0.650, -4.244e-8
-0.649, -4.053e-8
-0.648, -3.943e-8
-0.647, -3.762e-8
-0.646, -3.642e-8
-0.645, -3.439e-8
-0.644, -3.318e-8
-0.643, -3.135e-8
-0.642, -2.999e-8
-0.641, -2.801e-8
-0.640, -2.682e-8
-0.639, -2.485e-8
-0.638, -2.378e-8
-0.637, -2.155e-8
-0.636, -2.023e-8
-0.635, -1.813e-8
-0.634, -1.694e-8
-0.633, -1.459e-8
-0.632, -1.363e-8
-0.631, -1.105e-8
-0.630, -9.759e-9
-0.629, -7.340e-9
-0.628, -6.214e-9
-0.627, -4.255e-9
-0.626, -2.932e-9
-0.625, -9.050e-10
-0.624, 9.403e-11
-0.623, 2.092e-9
-0.622, 3.287e-9
-0.621, 5.902e-9
-0.620, 7.273e-9
-0.619, 9.585e-9
-0.618, 1.090e-8
-0.617, 1.316e-8
-0.616, 1.441e-8
-0.615, 1.681e-8
-0.614, 1.868e-8
-0.613, 2.059e-8
-0.612, 2.183e-8
-0.611, 2.377e-8
-0.610, 2.512e-8
-0.609, 2.772e-8
-0.608, 2.905e-8
-0.607, 3.173e-8
-0.606, 3.295e-8
-0.605, 3.542e-8
-0.604, 3.674e-8
-0.603, 3.899e-8
-0.602, 4.014e-8
-0.601, 4.261e-8
-0.600, 4.378e-8
-0.599, 4.644e-8
-0.598, 4.754e-8
-0.597, 4.972e-8
-0.596, 5.104e-8
-0.595, 5.334e-8
-0.594, 5.498e-8
-0.593, 5.735e-8
-0.592, 5.847e-8
-0.591, 6.075e-8
-0.590, 6.187e-8
-0.589, 6.423e-8
-0.588, 6.539e-8
-0.587, 6.740e-8
-0.586, 6.868e-8
-0.585, 7.085e-8
-0.584, 7.196e-8
-0.583, 7.423e-8
-0.582, 7.549e-8
-0.581, 7.786e-8
-0.580, 7.921e-8
-0.579, 8.146e-8
-0.578, 8.253e-8
-0.577, 8.484e-8
-0.576, 8.589e-8
-0.575, 8.828e-8
-0.574, 8.924e-8
-0.573, 9.163e-8
-0.572, 9.255e-8
-0.571, 9.463e-8
-0.570, 9.554e-8
-0.569, 9.749e-8
-0.568, 9.828e-8
-0.567, 1.005e-7
-0.566, 1.017e-7
-0.565, 1.040e-7
-0.564, 1.050e-7
-0.563, 1.072e-7
-0.562, 1.081e-7
-0.561, 1.100e-7
-0.560, 1.109e-7
-0.559, 1.128e-7
-0.558, 1.137e-7
-0.557, 1.155e-7
-0.556, 1.163e-7
-0.555, 1.180e-7
-0.554, 1.187e-7
-0.553, 1.205e-7
-0.552, 1.212e-7
-0.551, 1.230e-7
-0.550, 1.235e-7
-0.549, 1.256e-7
-0.548, 1.263e-7
-0.547, 1.283e-7
-0.546, 1.289e-7
-0.545, 1.308e-7
-0.544, 1.310e-7
-0.543, 1.328e-7
-0.542, 1.332e-7
-0.541, 1.349e-7
-0.540, 1.352e-7
-0.539, 1.367e-7
-0.538, 1.372e-7
-0.537, 1.389e-7
-0.536, 1.391e-7
-0.535, 1.404e-7
-0.534, 1.408e-7
-0.533, 1.421e-7
-0.532, 1.424e-7
-0.531, 1.435e-7
-0.530, 1.439e-7
-0.529, 1.450e-7
-0.528, 1.454e-7
-0.527, 1.465e-7
-0.526, 1.466e-7
-0.525, 1.478e-7
-0.524, 1.478e-7
-0.523, 1.492e-7
-0.522, 1.492e-7
-0.521, 1.503e-7
-0.520, 1.504e-7
-0.519, 1.516e-7
-0.518, 1.514e-7
-0.517, 1.525e-7
-0.516, 1.525e-7
-0.515, 1.538e-7
-0.514, 1.535e-7
-0.513, 1.545e-7
-0.512, 1.547e-7
-0.511, 1.553e-7
-0.510, 1.552e-7
-0.509, 1.560e-7
-0.508, 1.557e-7
-0.507, 1.564e-7
-0.506, 1.563e-7
-0.505, 1.569e-7
-0.504, 1.566e-7
-0.503, 1.573e-7
-0.502, 1.568e-7
-0.501, 1.575e-7
-0.500, 1.573e-7
-0.499, 1.577e-7
-0.498, 1.573e-7
-0.497, 1.579e-7
-0.496, 1.575e-7
-0.495, 1.581e-7
-0.494, 1.575e-7
-0.493, 1.580e-7
-0.492, 1.574e-7
-0.491, 1.579e-7
-0.490, 1.573e-7
-0.489, 1.580e-7
-0.488, 1.573e-7
-0.487, 1.579e-7
-0.486, 1.575e-7
-0.485, 1.576e-7
-0.484, 1.570e-7
-0.483, 1.575e-7
-0.482, 1.568e-7
-0.481, 1.571e-7
-0.480, 1.562e-7
-0.479, 1.567e-7
-0.478, 1.559e-7
-0.477, 1.563e-7
-0.476, 1.558e-7
-0.475, 1.559e-7
-0.474, 1.551e-7
-0.473, 1.553e-7
-0.472, 1.546e-7
-0.471, 1.549e-7
-0.470, 1.540e-7
-0.469, 1.543e-7
-0.468, 1.533e-7
-0.467, 1.536e-7
-0.466, 1.527e-7
-0.465, 1.530e-7
-0.464, 1.522e-7
-0.463, 1.524e-7
-0.462, 1.512e-7
-0.461, 1.517e-7
-0.460, 1.507e-7
-0.459, 1.507e-7
-0.458, 1.497e-7
-0.457, 1.499e-7
-0.456, 1.489e-7
-0.455, 1.490e-7
-0.454, 1.481e-7
-0.453, 1.482e-7
-0.452, 1.474e-7
-0.451, 1.475e-7
-0.450, 1.465e-7
-0.449, 1.466e-7
-0.448, 1.457e-7
-0.447, 1.458e-7
-0.446, 1.451e-7
-0.445, 1.452e-7
-0.444, 1.444e-7
-0.443, 1.443e-7
-0.442, 1.434e-7
-0.441, 1.434e-7
-0.440, 1.426e-7
-0.439, 1.427e-7
-0.438, 1.418e-7
-0.437, 1.418e-7
-0.436, 1.411e-7
-0.435, 1.411e-7
-0.434, 1.400e-7
-0.433, 1.401e-7
-0.432, 1.392e-7
-0.431, 1.394e-7
-0.430, 1.384e-7
-0.429, 1.384e-7
-0.428, 1.375e-7
-0.427, 1.376e-7
-0.426, 1.368e-7
-0.425, 1.368e-7
-0.424, 1.358e-7
-0.423, 1.358e-7
-0.422, 1.349e-7
-0.421, 1.348e-7
-0.420, 1.342e-7
-0.419, 1.342e-7
-0.418, 1.333e-7
-0.417, 1.333e-7
-0.416, 1.325e-7
-0.415, 1.325e-7
-0.414, 1.316e-7
-0.413, 1.317e-7
-0.412, 1.308e-7
-0.411, 1.309e-7
-0.410, 1.295e-7
-0.409, 1.295e-7
-0.408, 1.289e-7
-0.407, 1.291e-7
-0.406, 1.282e-7
-0.405, 1.283e-7
-0.404, 1.274e-7
-0.403, 1.273e-7
-0.402, 1.264e-7
-0.401, 1.265e-7
-0.400, 1.256e-7
-0.399, 1.256e-7
-0.398, 1.247e-7
-0.397, 1.245e-7
-0.396, 1.237e-7
-0.395, 1.238e-7
-0.394, 1.231e-7
-0.393, 1.230e-7
-0.392, 1.222e-7
-0.391, 1.224e-7
-0.390, 1.214e-7
-0.389, 1.215e-7
-0.388, 1.207e-7
-0.387, 1.207e-7
-0.386, 1.201e-7
-0.385, 1.201e-7
-0.384, 1.194e-7
-0.383, 1.196e-7
-0.382, 1.187e-7
-0.381, 1.188e-7
-0.380, 1.181e-7
-0.379, 1.181e-7
-0.378, 1.174e-7
-0.377, 1.174e-7
-0.376, 1.168e-7
-0.375, 1.169e-7
-0.374, 1.160e-7
-0.373, 1.163e-7
-0.372, 1.155e-7
-0.371, 1.154e-7
-0.370, 1.148e-7
-0.369, 1.150e-7
-0.368, 1.143e-7
-0.367, 1.144e-7
-0.366, 1.136e-7
-0.365, 1.137e-7
-0.364, 1.129e-7
-0.363, 1.131e-7
-0.362, 1.123e-7
-0.361, 1.126e-7
-0.360, 1.118e-7
-0.359, 1.121e-7
-0.358, 1.115e-7
-0.357, 1.113e-7
-0.356, 1.106e-7
-0.355, 1.108e-7
-0.354, 1.103e-7
-0.353, 1.104e-7
-0.352, 1.097e-7
-0.351, 1.099e-7
-0.350, 1.091e-7
-0.349, 1.093e-7
-0.348, 1.087e-7
-0.347, 1.089e-7
-0.346, 1.082e-7
-0.345, 1.083e-7
-0.344, 1.077e-7
-0.343, 1.080e-7
-0.342, 1.074e-7
-0.341, 1.074e-7
-0.340, 1.068e-7
-0.339, 1.068e-7
-0.338, 1.062e-7
-0.337, 1.064e-7
-0.336, 1.057e-7
-0.335, 1.061e-7
-0.334, 1.052e-7
-0.333, 1.057e-7
-0.332, 1.049e-7
-0.331, 1.051e-7
-0.330, 1.044e-7
-0.329, 1.047e-7
-0.328, 1.038e-7
-0.327, 1.041e-7
-0.326, 1.034e-7
-0.325, 1.037e-7
-0.324, 1.030e-7
-0.323, 1.031e-7
-0.322, 1.024e-7
-0.321, 1.029e-7
-0.320, 1.020e-7
-0.319, 1.024e-7
-0.318, 1.016e-7
-0.317, 1.019e-7
-0.316, 1.013e-7
-0.315, 1.015e-7
-0.314, 1.009e-7
-0.313, 1.012e-7
-0.312, 1.005e-7
-0.311, 1.008e-7
-0.310, 1.001e-7
-0.309, 1.003e-7
-0.308, 9.985e-8
-0.307, 1.007e-7
-0.306, 9.964e-8
-0.305, 9.971e-8
-0.304, 9.918e-8
-0.303, 9.945e-8
-0.302, 9.886e-8
-0.301, 9.909e-8
-0.300, 9.854e-8
-0.299, 9.887e-8
-0.298, 9.827e-8
-0.297, 9.843e-8
-0.296, 9.797e-8
-0.295, 9.824e-8
-0.294, 9.759e-8
-0.293, 9.787e-8
-0.292, 9.745e-8
-0.291, 9.775e-8
-0.290, 9.725e-8
-0.289, 9.738e-8
-0.288, 9.679e-8
-0.287, 9.711e-8
-0.286, 9.665e-8
-0.285, 9.698e-8
-0.284, 9.651e-8
-0.283, 9.677e-8
-0.282, 9.633e-8
-0.281, 9.667e-8
-0.280, 9.597e-8
-0.279, 9.629e-8
-0.278, 9.582e-8
-0.277, 9.607e-8
-0.276, 9.555e-8
-0.275, 9.575e-8
-0.274, 9.535e-8
-0.273, 9.564e-8
-0.272, 9.516e-8
-0.271, 9.541e-8
-0.270, 9.495e-8
-0.269, 9.519e-8
-0.268, 9.470e-8
-0.267, 9.496e-8
-0.266, 9.453e-8
-0.265, 9.481e-8
-0.264, 9.420e-8
-0.263, 9.451e-8
-0.262, 9.417e-8
-0.261, 9.435e-8
-0.260, 9.391e-8
-0.259, 9.417e-8
-0.258, 9.388e-8
-0.257, 9.404e-8
-0.256, 9.375e-8
-0.255, 9.384e-8
-0.254, 9.314e-8
-0.253, 9.371e-8
-0.252, 9.325e-8
-0.251, 9.350e-8
-0.250, 9.300e-8
-0.249, 9.332e-8
-0.248, 9.272e-8
-0.247, 9.313e-8
-0.246, 9.272e-8
-0.245, 9.293e-8
-0.244, 9.257e-8
-0.243, 9.271e-8
-0.242, 9.236e-8
-0.241, 9.259e-8
-0.240, 9.218e-8
-0.239, 9.255e-8
-0.238, 9.193e-8
-0.237, 9.217e-8
-0.236, 9.187e-8
-0.235, 9.214e-8
-0.234, 9.189e-8
-0.233, 9.208e-8
-0.232, 9.162e-8
-0.231, 9.185e-8
-0.230, 9.160e-8
-0.229, 9.173e-8
-0.228, 9.121e-8
-0.227, 9.151e-8
-0.226, 9.116e-8
-0.225, 9.137e-8
-0.224, 9.095e-8
-0.223, 9.125e-8
-0.222, 9.085e-8
-0.221, 9.123e-8
-0.220, 9.076e-8
-0.219, 9.101e-8
-0.218, 9.051e-8
-0.217, 9.084e-8
-0.216, 9.055e-8
-0.215, 9.081e-8
-0.214, 9.028e-8
-0.213, 9.081e-8
-0.212, 9.040e-8
-0.211, 9.048e-8
-0.210, 9.025e-8
-0.209, 9.047e-8
-0.208, 8.995e-8
-0.207, 9.032e-8
-0.206, 8.998e-8
-0.205, 9.072e-8
-0.204, 9.015e-8
-0.203, 9.034e-8
-0.202, 8.994e-8
-0.201, 9.034e-8
-0.200, 8.974e-8
-0.199, 8.998e-8
-0.198, 8.975e-8
-0.197, 9.014e-8
-0.196, 8.960e-8
-0.195, 8.989e-8
-0.194, 8.957e-8
-0.193, 8.982e-8
-0.192, 8.927e-8
-0.191, 8.973e-8
-0.190, 8.941e-8
-0.189, 8.966e-8
-0.188, 8.934e-8
-0.187, 8.948e-8
-0.186, 8.920e-8
-0.185, 8.947e-8
-0.184, 8.904e-8
-0.183, 8.940e-8
-0.182, 8.905e-8
-0.181, 8.938e-8
-0.180, 8.896e-8
-0.179, 8.942e-8
-0.178, 8.891e-8
-0.177, 8.938e-8
-0.176, 8.883e-8
-0.175, 8.919e-8
-0.174, 8.878e-8
-0.173, 8.895e-8
-0.172, 8.863e-8
-0.171, 8.905e-8
-0.170, 8.865e-8
-0.169, 8.895e-8
-0.168, 8.857e-8
-0.167, 8.883e-8
-0.166, 8.855e-8
-0.165, 8.886e-8
-0.164, 8.849e-8
-0.163, 8.894e-8
-0.162, 8.856e-8
-0.161, 8.877e-8
-0.160, 8.836e-8
-0.159, 8.876e-8
-0.158, 8.841e-8
-0.157, 8.872e-8
-0.156, 8.839e-8
-0.155, 8.871e-8
-0.154, 8.856e-8
-0.153, 8.863e-8
-0.152, 8.819e-8
-0.151, 8.864e-8
-0.150, 8.826e-8
-0.149, 8.847e-8
-0.148, 8.811e-8
-0.147, 8.847e-8
-0.146, 8.818e-8
-0.145, 8.843e-8
-0.144, 8.825e-8
-0.143, 8.834e-8
-0.142, 8.807e-8
-0.141, 8.848e-8
-0.140, 8.798e-8
-0.139, 8.837e-8
-0.138, 8.813e-8
-0.137, 8.834e-8
-0.136, 8.792e-8
-0.135, 8.838e-8
-0.134, 8.793e-8
-0.133, 8.850e-8
-0.132, 8.807e-8
-0.131, 8.833e-8
-0.130, 8.799e-8
-0.129, 8.833e-8
-0.128, 8.824e-8
-0.127, 8.840e-8
-0.126, 8.802e-8
-0.125, 8.842e-8
-0.124, 8.810e-8
-0.123, 8.837e-8
-0.122, 8.791e-8
-0.121, 8.825e-8
-0.120, 8.783e-8
-0.119, 8.822e-8
-0.118, 8.799e-8
-0.117, 8.825e-8
-0.116, 8.797e-8
-0.115, 8.805e-8
-0.114, 8.794e-8
-0.113, 8.820e-8
-0.112, 8.781e-8
-0.111, 8.824e-8
-0.110, 8.773e-8
-0.109, 8.818e-8
-0.108, 8.812e-8
-0.107, 8.827e-8
-0.106, 8.792e-8
-0.105, 8.831e-8
-0.104, 8.794e-8
-0.103, 8.840e-8
-0.102, 8.840e-8
-0.101, 8.845e-8
-0.100, 8.813e-8
-0.099, 8.852e-8
-0.098, 8.798e-8
-0.097, 8.834e-8
-0.096, 8.807e-8
-0.095, 8.851e-8
-0.094, 8.810e-8
-0.093, 8.840e-8
-0.092, 8.830e-8
-0.091, 8.841e-8
-0.090, 8.810e-8
-0.089, 8.843e-8
-0.088, 8.823e-8
-0.087, 8.857e-8
-0.086, 8.818e-8
-0.085, 8.850e-8
-0.084, 8.824e-8
-0.083, 8.840e-8
-0.082, 8.809e-8
-0.081, 8.872e-8
-0.080, 8.828e-8
-0.079, 8.860e-8
-0.078, 8.816e-8
-0.077, 8.882e-8
-0.076, 8.841e-8
-0.075, 8.860e-8
-0.074, 8.849e-8
-0.073, 8.868e-8
-0.072, 8.826e-8
-0.071, 8.874e-8
-0.070, 8.844e-8
-0.069, 8.880e-8
-0.068, 8.836e-8
-0.067, 8.881e-8
-0.066, 8.845e-8
-0.065, 8.885e-8
-0.064, 8.825e-8
-0.063, 8.871e-8
-0.062, 8.843e-8
-0.061, 8.885e-8
-0.060, 8.854e-8
-0.059, 8.887e-8
-0.058, 8.858e-8
-0.057, 8.884e-8
-0.056, 8.850e-8
-0.055, 8.892e-8
-0.054, 8.861e-8
-0.053, 8.892e-8
-0.052, 8.866e-8
-0.051, 8.909e-8
-0.050, 8.871e-8
-0.049, 8.899e-8
-0.048, 8.873e-8
-0.047, 8.900e-8
-0.046, 8.867e-8
-0.045, 8.901e-8
-0.044, 8.879e-8
-0.043, 8.910e-8
-0.042, 8.871e-8
-0.041, 8.920e-8
-0.040, 8.884e-8
-0.039, 8.920e-8
-0.038, 8.877e-8
-0.037, 8.926e-8
-0.036, 8.897e-8
-0.035, 8.934e-8
-0.034, 8.907e-8
-0.033, 8.925e-8
-0.032, 8.889e-8
-0.031, 8.936e-8
-0.030, 8.906e-8
-0.029, 8.946e-8
-0.028, 8.925e-8
-0.027, 8.940e-8
-0.026, 8.919e-8
-0.025, 8.953e-8
-0.024, 8.920e-8
-0.023, 8.962e-8
-0.022, 8.941e-8
-0.021, 8.950e-8
-0.020, 8.949e-8
-0.019, 8.960e-8
-0.018, 8.934e-8
-0.017, 8.956e-8
-0.016, 8.943e-8
-0.015, 8.980e-8
-0.014, 8.946e-8
-0.013, 8.969e-8
-0.012, 8.948e-8
-0.011, 8.982e-8
-0.010, 8.951e-8
-0.009, 8.984e-8
-0.008, 8.950e-8
-0.007, 8.998e-8
-0.006, 8.968e-8
-0.005, 9.007e-8
-0.004, 8.982e-8
-0.003, 8.999e-8
-0.002, 8.979e-8
-0.001, 9.021e-8
